-0.63919,-0.62161,-0.59084,-0.59670,-0.59158,-0.68315,-0.88535,0.35714,1.50000,-0.32125,-1.50000,-1.38278,-1.06703,-0.84066,-0.60842,-0.59744,-0.59524,-0.59524,-0.62747,-0.61575,-0.58645,-0.40330,-0.23919,-0.08681,0.00330
-0.63919,-0.62161,-0.59084,-0.59670,-0.59158,-0.68315,-0.88535,0.35714,1.50000,-0.32125,-1.50000,-1.38278,-1.06703,-0.84066,-0.60842,-0.59744,-0.59524,-0.59524,-0.62747,-0.61575,-0.58645,-0.40330,-0.23919,-0.08681,0.00330
-0.63919,-0.62161,-0.59084,-0.59670,-0.59158,-0.68315,-0.88535,0.35714,1.50000,-0.32125,-1.50000,-1.38278,-1.06703,-0.84066,-0.60842,-0.59744,-0.59524,-0.59524,-0.62747,-0.61575,-0.58645,-0.40330,-0.23919,-0.08681,0.00330
-0.63919,-0.62161,-0.59084,-0.59670,-0.59158,-0.68315,-0.88535,0.35714,1.50000,-0.32125,-1.50000,-1.38278,-1.06703,-0.84066,-0.60842,-0.59744,-0.59524,-0.59524,-0.62747,-0.61575,-0.58645,-0.40330,-0.23919,-0.08681,0.00330
-0.63919,-0.62161,-0.59084,-0.59670,-0.59158,-0.68315,-0.88535,0.35714,1.50000,-0.32125,-1.50000,-1.38278,-1.06703,-0.84066,-0.60842,-0.59744,-0.59524,-0.59524,-0.62747,-0.61575,-0.58645,-0.40330,-0.23919,-0.08681,0.00330
-0.63919,-0.62161,-0.59084,-0.59670,-0.59158,-0.68315,-0.88535,0.35714,1.50000,-0.32125,-1.50000,-1.38278,-1.06703,-0.84066,-0.60842,-0.59744,-0.59524,-0.59524,-0.62747,-0.61575,-0.58645,-0.40330,-0.23919,-0.08681,0.00330
-0.63919,-0.62161,-0.59084,-0.59670,-0.59158,-0.68315,-0.88535,0.35714,1.50000,-0.32125,-1.50000,-1.38278,-1.06703,-0.84066,-0.60842,-0.59744,-0.59524,-0.59524,-0.62747,-0.61575,-0.58645,-0.40330,-0.23919,-0.08681,0.00330
-0.63919,-0.62161,-0.59084,-0.59670,-0.59158,-0.68315,-0.88535,0.35714,1.50000,-0.32125,-1.50000,-1.38278,-1.06703,-0.84066,-0.60842,-0.59744,-0.59524,-0.59524,-0.62747,-0.61575,-0.58645,-0.40330,-0.23919,-0.08681,0.00330
-0.63919,-0.62161,-0.59084,-0.59670,-0.59158,-0.68315,-0.88535,0.35714,1.50000,-0.32125,-1.50000,-1.38278,-1.06703,-0.84066,-0.60842,-0.59744,-0.59524,-0.59524,-0.62747,-0.61575,-0.58645,-0.40330,-0.23919,-0.08681,0.00330
-0.63919,-0.62161,-0.59084,-0.59670,-0.59158,-0.68315,-0.88535,0.35714,1.50000,-0.32125,-1.50000,-1.38278,-1.06703,-0.84066,-0.60842,-0.59744,-0.59524,-0.59524,-0.62747,-0.61575,-0.58645,-0.40330,-0.23919,-0.08681,0.00330
-0.63919,-0.62161,-0.59084,-0.59670,-0.59158,-0.68315,-0.88535,0.35714,1.50000,-0.32125,-1.50000,-1.38278,-1.06703,-0.84066,-0.60842,-0.59744,-0.59524,-0.59524,-0.62747,-0.61575,-0.58645,-0.40330,-0.23919,-0.08681,0.00330
-0.63919,-0.62161,-0.59084,-0.59670,-0.59158,-0.68315,-0.88535,0.35714,1.50000,-0.32125,-1.50000,-1.38278,-1.06703,-0.84066,-0.60842,-0.59744,-0.59524,-0.59524,-0.62747,-0.61575,-0.58645,-0.40330,-0.23919,-0.08681,0.00330
-0.63919,-0.62161,-0.59084,-0.59670,-0.59158,-0.68315,-0.88535,0.35714,1.50000,-0.32125,-1.50000,-1.38278,-1.06703,-0.84066,-0.60842,-0.59744,-0.59524,-0.59524,-0.62747,-0.61575,-0.58645,-0.40330,-0.23919,-0.08681,0.00330
0.04066,0.04212,-0.08681,-0.28168,-0.48535,-0.63919,-0.61575,-0.61575,-0.59670,-0.53223,-0.53223,-0.62161,-0.62747,-0.60989,-0.59084,-0.59670,-0.60989,-0.63919,-0.60989,-0.57326,-0.59084,-0.59744,-0.60110,-0.61209,-0.61648
0.04066,0.04212,-0.08681,-0.28168,-0.48535,-0.63919,-0.61575,-0.61575,-0.59670,-0.53223,-0.53223,-0.62161,-0.62747,-0.60989,-0.59084,-0.59670,-0.60989,-0.63919,-0.60989,-0.57326,-0.59084,-0.59744,-0.60110,-0.61209,-0.61648
0.04066,0.04212,-0.08681,-0.28168,-0.48535,-0.63919,-0.61575,-0.61575,-0.59670,-0.53223,-0.53223,-0.62161,-0.62747,-0.60989,-0.59084,-0.59670,-0.60989,-0.63919,-0.60989,-0.57326,-0.59084,-0.59744,-0.60110,-0.61209,-0.61648
0.04066,0.04212,-0.08681,-0.28168,-0.48535,-0.63919,-0.61575,-0.61575,-0.59670,-0.53223,-0.53223,-0.62161,-0.62747,-0.60989,-0.59084,-0.59670,-0.60989,-0.63919,-0.60989,-0.57326,-0.59084,-0.59744,-0.60110,-0.61209,-0.61648
0.04066,0.04212,-0.08681,-0.28168,-0.48535,-0.63919,-0.61575,-0.61575,-0.59670,-0.53223,-0.53223,-0.62161,-0.62747,-0.60989,-0.59084,-0.59670,-0.60989,-0.63919,-0.60989,-0.57326,-0.59084,-0.59744,-0.60110,-0.61209,-0.61648
0.04066,0.04212,-0.08681,-0.28168,-0.48535,-0.63919,-0.61575,-0.61575,-0.59670,-0.53223,-0.53223,-0.62161,-0.62747,-0.60989,-0.59084,-0.59670,-0.60989,-0.63919,-0.60989,-0.57326,-0.59084,-0.59744,-0.60110,-0.61209,-0.61648
0.04066,0.04212,-0.08681,-0.28168,-0.48535,-0.63919,-0.61575,-0.61575,-0.59670,-0.53223,-0.53223,-0.62161,-0.62747,-0.60989,-0.59084,-0.59670,-0.60989,-0.63919,-0.60989,-0.57326,-0.59084,-0.59744,-0.60110,-0.61209,-0.61648
0.04066,0.04212,-0.08681,-0.28168,-0.48535,-0.63919,-0.61575,-0.61575,-0.59670,-0.53223,-0.53223,-0.62161,-0.62747,-0.60989,-0.59084,-0.59670,-0.60989,-0.63919,-0.60989,-0.57326,-0.59084,-0.59744,-0.60110,-0.61209,-0.61648
0.04066,0.04212,-0.08681,-0.28168,-0.48535,-0.63919,-0.61575,-0.61575,-0.59670,-0.53223,-0.53223,-0.62161,-0.62747,-0.60989,-0.59084,-0.59670,-0.60989,-0.63919,-0.60989,-0.57326,-0.59084,-0.59744,-0.60110,-0.61209,-0.61648
0.04066,0.04212,-0.08681,-0.28168,-0.48535,-0.63919,-0.61575,-0.61575,-0.59670,-0.53223,-0.53223,-0.62161,-0.62747,-0.60989,-0.59084,-0.59670,-0.60989,-0.63919,-0.60989,-0.57326,-0.59084,-0.59744,-0.60110,-0.61209,-0.61648
0.04066,0.04212,-0.08681,-0.28168,-0.48535,-0.63919,-0.61575,-0.61575,-0.59670,-0.53223,-0.53223,-0.62161,-0.62747,-0.60989,-0.59084,-0.59670,-0.60989,-0.63919,-0.60989,-0.57326,-0.59084,-0.59744,-0.60110,-0.61209,-0.61648
0.04066,0.04212,-0.08681,-0.28168,-0.48535,-0.63919,-0.61575,-0.61575,-0.59670,-0.53223,-0.53223,-0.62161,-0.62747,-0.60989,-0.59084,-0.59670,-0.60989,-0.63919,-0.60989,-0.57326,-0.59084,-0.59744,-0.60110,-0.61209,-0.61648
0.04066,0.04212,-0.08681,-0.28168,-0.48535,-0.63919,-0.61575,-0.61575,-0.59670,-0.53223,-0.53223,-0.62161,-0.62747,-0.60989,-0.59084,-0.59670,-0.60989,-0.63919,-0.60989,-0.57326,-0.59084,-0.59744,-0.60110,-0.61209,-0.61648
0.04066,0.04212,-0.08681,-0.28168,-0.48535,-0.63919,-0.61575,-0.61575,-0.59670,-0.53223,-0.53223,-0.62161,-0.62747,-0.60989,-0.59084,-0.59670,-0.60989,-0.63919,-0.60989,-0.57326,-0.59084,-0.59744,-0.60110,-0.61209,-0.61648
0.04066,0.04212,-0.08681,-0.28168,-0.48535,-0.63919,-0.61575,-0.61575,-0.59670,-0.53223,-0.53223,-0.62161,-0.62747,-0.60989,-0.59084,-0.59670,-0.60989,-0.63919,-0.60989,-0.57326,-0.59084,-0.59744,-0.60110,-0.61209,-0.61648
-0.58498,-0.60916,-0.63040,-0.61282,-0.62821,-0.40476,-0.14029,0.00696,-0.03260,-0.24945,-0.61429,-0.60989,-0.59670,-0.57985,-0.59158,-0.66557,-0.89707,0.33370,1.50000,-0.27436,-1.50000,-1.37985,-1.07216,-0.82674,-0.61282
-0.58498,-0.60916,-0.63040,-0.61282,-0.62821,-0.40476,-0.14029,0.00696,-0.03260,-0.24945,-0.61429,-0.60989,-0.59670,-0.57985,-0.59158,-0.66557,-0.89707,0.33370,1.50000,-0.27436,-1.50000,-1.37985,-1.07216,-0.82674,-0.61282
-0.58498,-0.60916,-0.63040,-0.61282,-0.62821,-0.40476,-0.14029,0.00696,-0.03260,-0.24945,-0.61429,-0.60989,-0.59670,-0.57985,-0.59158,-0.66557,-0.89707,0.33370,1.50000,-0.27436,-1.50000,-1.37985,-1.07216,-0.82674,-0.61282
-0.58498,-0.60916,-0.63040,-0.61282,-0.62821,-0.40476,-0.14029,0.00696,-0.03260,-0.24945,-0.61429,-0.60989,-0.59670,-0.57985,-0.59158,-0.66557,-0.89707,0.33370,1.50000,-0.27436,-1.50000,-1.37985,-1.07216,-0.82674,-0.61282
-0.58498,-0.60916,-0.63040,-0.61282,-0.62821,-0.40476,-0.14029,0.00696,-0.03260,-0.24945,-0.61429,-0.60989,-0.59670,-0.57985,-0.59158,-0.66557,-0.89707,0.33370,1.50000,-0.27436,-1.50000,-1.37985,-1.07216,-0.82674,-0.61282
-0.58498,-0.60916,-0.63040,-0.61282,-0.62821,-0.40476,-0.14029,0.00696,-0.03260,-0.24945,-0.61429,-0.60989,-0.59670,-0.57985,-0.59158,-0.66557,-0.89707,0.33370,1.50000,-0.27436,-1.50000,-1.37985,-1.07216,-0.82674,-0.61282
-0.58498,-0.60916,-0.63040,-0.61282,-0.62821,-0.40476,-0.14029,0.00696,-0.03260,-0.24945,-0.61429,-0.60989,-0.59670,-0.57985,-0.59158,-0.66557,-0.89707,0.33370,1.50000,-0.27436,-1.50000,-1.37985,-1.07216,-0.82674,-0.61282
-0.58498,-0.60916,-0.63040,-0.61282,-0.62821,-0.40476,-0.14029,0.00696,-0.03260,-0.24945,-0.61429,-0.60989,-0.59670,-0.57985,-0.59158,-0.66557,-0.89707,0.33370,1.50000,-0.27436,-1.50000,-1.37985,-1.07216,-0.82674,-0.61282
-0.58498,-0.60916,-0.63040,-0.61282,-0.62821,-0.40476,-0.14029,0.00696,-0.03260,-0.24945,-0.61429,-0.60989,-0.59670,-0.57985,-0.59158,-0.66557,-0.89707,0.33370,1.50000,-0.27436,-1.50000,-1.37985,-1.07216,-0.82674,-0.61282
-0.58498,-0.60916,-0.63040,-0.61282,-0.62821,-0.40476,-0.14029,0.00696,-0.03260,-0.24945,-0.61429,-0.60989,-0.59670,-0.57985,-0.59158,-0.66557,-0.89707,0.33370,1.50000,-0.27436,-1.50000,-1.37985,-1.07216,-0.82674,-0.61282
-0.58498,-0.60916,-0.63040,-0.61282,-0.62821,-0.40476,-0.14029,0.00696,-0.03260,-0.24945,-0.61429,-0.60989,-0.59670,-0.57985,-0.59158,-0.66557,-0.89707,0.33370,1.50000,-0.27436,-1.50000,-1.37985,-1.07216,-0.82674,-0.61282
-0.58498,-0.60916,-0.63040,-0.61282,-0.62821,-0.40476,-0.14029,0.00696,-0.03260,-0.24945,-0.61429,-0.60989,-0.59670,-0.57985,-0.59158,-0.66557,-0.89707,0.33370,1.50000,-0.27436,-1.50000,-1.37985,-1.07216,-0.82674,-0.61282
-0.58498,-0.60916,-0.63040,-0.61282,-0.62821,-0.40476,-0.14029,0.00696,-0.03260,-0.24945,-0.61429,-0.60989,-0.59670,-0.57985,-0.59158,-0.66557,-0.89707,0.33370,1.50000,-0.27436,-1.50000,-1.37985,-1.07216,-0.82674,-0.61282
-0.58498,-0.60916,-0.63040,-0.61282,-0.62821,-0.40476,-0.14029,0.00696,-0.03260,-0.24945,-0.61429,-0.60989,-0.59670,-0.57985,-0.59158,-0.66557,-0.89707,0.33370,1.50000,-0.27436,-1.50000,-1.37985,-1.07216,-0.82674,-0.61282
-0.58498,-0.60916,-0.63040,-0.61282,-0.62821,-0.40476,-0.14029,0.00696,-0.03260,-0.24945,-0.61429,-0.60989,-0.59670,-0.57985,-0.59158,-0.66557,-0.89707,0.33370,1.50000,-0.27436,-1.50000,-1.37985,-1.07216,-0.82674,-0.61282
-0.59670,-0.60256,-0.59524,-0.63919,-0.62747,-0.58571,-0.41502,-0.23773,-0.08535,-0.01209,0.02894,0.02967,-0.10440,-0.27436,-0.50293,-0.63919,-0.62747,-0.59817,-0.60330,-0.55128,-0.53077,-0.62161,-0.62821,-0.60403,-0.61282
-0.59670,-0.60256,-0.59524,-0.63919,-0.62747,-0.58571,-0.41502,-0.23773,-0.08535,-0.01209,0.02894,0.02967,-0.10440,-0.27436,-0.50293,-0.63919,-0.62747,-0.59817,-0.60330,-0.55128,-0.53077,-0.62161,-0.62821,-0.60403,-0.61282
-0.59670,-0.60256,-0.59524,-0.63919,-0.62747,-0.58571,-0.41502,-0.23773,-0.08535,-0.01209,0.02894,0.02967,-0.10440,-0.27436,-0.50293,-0.63919,-0.62747,-0.59817,-0.60330,-0.55128,-0.53077,-0.62161,-0.62821,-0.60403,-0.61282
-0.59670,-0.60256,-0.59524,-0.63919,-0.62747,-0.58571,-0.41502,-0.23773,-0.08535,-0.01209,0.02894,0.02967,-0.10440,-0.27436,-0.50293,-0.63919,-0.62747,-0.59817,-0.60330,-0.55128,-0.53077,-0.62161,-0.62821,-0.60403,-0.61282
-0.59670,-0.60256,-0.59524,-0.63919,-0.62747,-0.58571,-0.41502,-0.23773,-0.08535,-0.01209,0.02894,0.02967,-0.10440,-0.27436,-0.50293,-0.63919,-0.62747,-0.59817,-0.60330,-0.55128,-0.53077,-0.62161,-0.62821,-0.60403,-0.61282
-0.59670,-0.60256,-0.59524,-0.63919,-0.62747,-0.58571,-0.41502,-0.23773,-0.08535,-0.01209,0.02894,0.02967,-0.10440,-0.27436,-0.50293,-0.63919,-0.62747,-0.59817,-0.60330,-0.55128,-0.53077,-0.62161,-0.62821,-0.60403,-0.61282
-0.59670,-0.60256,-0.59524,-0.63919,-0.62747,-0.58571,-0.41502,-0.23773,-0.08535,-0.01209,0.02894,0.02967,-0.10440,-0.27436,-0.50293,-0.63919,-0.62747,-0.59817,-0.60330,-0.55128,-0.53077,-0.62161,-0.62821,-0.60403,-0.61282
-0.59670,-0.60256,-0.59524,-0.63919,-0.62747,-0.58571,-0.41502,-0.23773,-0.08535,-0.01209,0.02894,0.02967,-0.10440,-0.27436,-0.50293,-0.63919,-0.62747,-0.59817,-0.60330,-0.55128,-0.53077,-0.62161,-0.62821,-0.60403,-0.61282
-0.59670,-0.60256,-0.59524,-0.63919,-0.62747,-0.58571,-0.41502,-0.23773,-0.08535,-0.01209,0.02894,0.02967,-0.10440,-0.27436,-0.50293,-0.63919,-0.62747,-0.59817,-0.60330,-0.55128,-0.53077,-0.62161,-0.62821,-0.60403,-0.61282
-0.59670,-0.60256,-0.59524,-0.63919,-0.62747,-0.58571,-0.41502,-0.23773,-0.08535,-0.01209,0.02894,0.02967,-0.10440,-0.27436,-0.50293,-0.63919,-0.62747,-0.59817,-0.60330,-0.55128,-0.53077,-0.62161,-0.62821,-0.60403,-0.61282
-0.59670,-0.60256,-0.59524,-0.63919,-0.62747,-0.58571,-0.41502,-0.23773,-0.08535,-0.01209,0.02894,0.02967,-0.10440,-0.27436,-0.50293,-0.63919,-0.62747,-0.59817,-0.60330,-0.55128,-0.53077,-0.62161,-0.62821,-0.60403,-0.61282
-0.59670,-0.60256,-0.59524,-0.63919,-0.62747,-0.58571,-0.41502,-0.23773,-0.08535,-0.01209,0.02894,0.02967,-0.10440,-0.27436,-0.50293,-0.63919,-0.62747,-0.59817,-0.60330,-0.55128,-0.53077,-0.62161,-0.62821,-0.60403,-0.61282
-0.59670,-0.60256,-0.59524,-0.63919,-0.62747,-0.58571,-0.41502,-0.23773,-0.08535,-0.01209,0.02894,0.02967,-0.10440,-0.27436,-0.50293,-0.63919,-0.62747,-0.59817,-0.60330,-0.55128,-0.53077,-0.62161,-0.62821,-0.60403,-0.61282
-0.59670,-0.60256,-0.59524,-0.63919,-0.62747,-0.58571,-0.41502,-0.23773,-0.08535,-0.01209,0.02894,0.02967,-0.10440,-0.27436,-0.50293,-0.63919,-0.62747,-0.59817,-0.60330,-0.55128,-0.53077,-0.62161,-0.62821,-0.60403,-0.61282
-0.59670,-0.60256,-0.59524,-0.63919,-0.62747,-0.58571,-0.41502,-0.23773,-0.08535,-0.01209,0.02894,0.02967,-0.10440,-0.27436,-0.50293,-0.63919,-0.62747,-0.59817,-0.60330,-0.55128,-0.53077,-0.62161,-0.62821,-0.60403,-0.61282
-0.60256,-0.58938,-0.62747,-0.61575,-0.59084,-0.60696,-0.60842,-0.59524,-0.61722,-0.61648,-0.59231,-0.58498,-0.60989,-0.60256,-0.63919,-0.39304,-0.13956,-0.01062,-0.02674,-0.25092,-0.59963,-0.62747,-0.58498,-0.60916,-0.60256
-0.60256,-0.58938,-0.62747,-0.61575,-0.59084,-0.60696,-0.60842,-0.59524,-0.61722,-0.61648,-0.59231,-0.58498,-0.60989,-0.60256,-0.63919,-0.39304,-0.13956,-0.01062,-0.02674,-0.25092,-0.59963,-0.62747,-0.58498,-0.60916,-0.60256
-0.60256,-0.58938,-0.62747,-0.61575,-0.59084,-0.60696,-0.60842,-0.59524,-0.61722,-0.61648,-0.59231,-0.58498,-0.60989,-0.60256,-0.63919,-0.39304,-0.13956,-0.01062,-0.02674,-0.25092,-0.59963,-0.62747,-0.58498,-0.60916,-0.60256
-0.60256,-0.58938,-0.62747,-0.61575,-0.59084,-0.60696,-0.60842,-0.59524,-0.61722,-0.61648,-0.59231,-0.58498,-0.60989,-0.60256,-0.63919,-0.39304,-0.13956,-0.01062,-0.02674,-0.25092,-0.59963,-0.62747,-0.58498,-0.60916,-0.60256
-0.60256,-0.58938,-0.62747,-0.61575,-0.59084,-0.60696,-0.60842,-0.59524,-0.61722,-0.61648,-0.59231,-0.58498,-0.60989,-0.60256,-0.63919,-0.39304,-0.13956,-0.01062,-0.02674,-0.25092,-0.59963,-0.62747,-0.58498,-0.60916,-0.60256
-0.60256,-0.58938,-0.62747,-0.61575,-0.59084,-0.60696,-0.60842,-0.59524,-0.61722,-0.61648,-0.59231,-0.58498,-0.60989,-0.60256,-0.63919,-0.39304,-0.13956,-0.01062,-0.02674,-0.25092,-0.59963,-0.62747,-0.58498,-0.60916,-0.60256
-0.60256,-0.58938,-0.62747,-0.61575,-0.59084,-0.60696,-0.60842,-0.59524,-0.61722,-0.61648,-0.59231,-0.58498,-0.60989,-0.60256,-0.63919,-0.39304,-0.13956,-0.01062,-0.02674,-0.25092,-0.59963,-0.62747,-0.58498,-0.60916,-0.60256
-0.60256,-0.58938,-0.62747,-0.61575,-0.59084,-0.60696,-0.60842,-0.59524,-0.61722,-0.61648,-0.59231,-0.58498,-0.60989,-0.60256,-0.63919,-0.39304,-0.13956,-0.01062,-0.02674,-0.25092,-0.59963,-0.62747,-0.58498,-0.60916,-0.60256
-0.60256,-0.58938,-0.62747,-0.61575,-0.59084,-0.60696,-0.60842,-0.59524,-0.61722,-0.61648,-0.59231,-0.58498,-0.60989,-0.60256,-0.63919,-0.39304,-0.13956,-0.01062,-0.02674,-0.25092,-0.59963,-0.62747,-0.58498,-0.60916,-0.60256
-0.60256,-0.58938,-0.62747,-0.61575,-0.59084,-0.60696,-0.60842,-0.59524,-0.61722,-0.61648,-0.59231,-0.58498,-0.60989,-0.60256,-0.63919,-0.39304,-0.13956,-0.01062,-0.02674,-0.25092,-0.59963,-0.62747,-0.58498,-0.60916,-0.60256
-0.60256,-0.58938,-0.62747,-0.61575,-0.59084,-0.60696,-0.60842,-0.59524,-0.61722,-0.61648,-0.59231,-0.58498,-0.60989,-0.60256,-0.63919,-0.39304,-0.13956,-0.01062,-0.02674,-0.25092,-0.59963,-0.62747,-0.58498,-0.60916,-0.60256
-0.60256,-0.58938,-0.62747,-0.61575,-0.59084,-0.60696,-0.60842,-0.59524,-0.61722,-0.61648,-0.59231,-0.58498,-0.60989,-0.60256,-0.63919,-0.39304,-0.13956,-0.01062,-0.02674,-0.25092,-0.59963,-0.62747,-0.58498,-0.60916,-0.60256
-0.60256,-0.58938,-0.62747,-0.61575,-0.59084,-0.60696,-0.60842,-0.59524,-0.61722,-0.61648,-0.59231,-0.58498,-0.60989,-0.60256,-0.63919,-0.39304,-0.13956,-0.01062,-0.02674,-0.25092,-0.59963,-0.62747,-0.58498,-0.60916,-0.60256
-0.60256,-0.58938,-0.62747,-0.61575,-0.59084,-0.60696,-0.60842,-0.59524,-0.61722,-0.61648,-0.59231,-0.58498,-0.60989,-0.60256,-0.63919,-0.39304,-0.13956,-0.01062,-0.02674,-0.25092,-0.59963,-0.62747,-0.58498,-0.60916,-0.60256
-0.60256,-0.58938,-0.62747,-0.61575,-0.59084,-0.60696,-0.60842,-0.59524,-0.61722,-0.61648,-0.59231,-0.58498,-0.60989,-0.60256,-0.63919,-0.39304,-0.13956,-0.01062,-0.02674,-0.25092,-0.59963,-0.62747,-0.58498,-0.60916,-0.60256
-0.67143,-0.89927,0.33370,1.50000,-0.28681,-1.49414,-1.37399,-1.07509,-0.83919,-0.62015,-0.61722,-0.59158,-0.59524,-0.61648,-0.61648,-0.59084,-0.42527,-0.22747,-0.09121,0.00916,0.02894,0.04212,-0.10440,-0.26850,-0.49707
-0.67143,-0.89927,0.33370,1.50000,-0.28681,-1.49414,-1.37399,-1.07509,-0.83919,-0.62015,-0.61722,-0.59158,-0.59524,-0.61648,-0.61648,-0.59084,-0.42527,-0.22747,-0.09121,0.00916,0.02894,0.04212,-0.10440,-0.26850,-0.49707
-0.67143,-0.89927,0.33370,1.50000,-0.28681,-1.49414,-1.37399,-1.07509,-0.83919,-0.62015,-0.61722,-0.59158,-0.59524,-0.61648,-0.61648,-0.59084,-0.42527,-0.22747,-0.09121,0.00916,0.02894,0.04212,-0.10440,-0.26850,-0.49707
-0.67143,-0.89927,0.33370,1.50000,-0.28681,-1.49414,-1.37399,-1.07509,-0.83919,-0.62015,-0.61722,-0.59158,-0.59524,-0.61648,-0.61648,-0.59084,-0.42527,-0.22747,-0.09121,0.00916,0.02894,0.04212,-0.10440,-0.26850,-0.49707
-0.67143,-0.89927,0.33370,1.50000,-0.28681,-1.49414,-1.37399,-1.07509,-0.83919,-0.62015,-0.61722,-0.59158,-0.59524,-0.61648,-0.61648,-0.59084,-0.42527,-0.22747,-0.09121,0.00916,0.02894,0.04212,-0.10440,-0.26850,-0.49707
-0.67143,-0.89927,0.33370,1.50000,-0.28681,-1.49414,-1.37399,-1.07509,-0.83919,-0.62015,-0.61722,-0.59158,-0.59524,-0.61648,-0.61648,-0.59084,-0.42527,-0.22747,-0.09121,0.00916,0.02894,0.04212,-0.10440,-0.26850,-0.49707
-0.67143,-0.89927,0.33370,1.50000,-0.28681,-1.49414,-1.37399,-1.07509,-0.83919,-0.62015,-0.61722,-0.59158,-0.59524,-0.61648,-0.61648,-0.59084,-0.42527,-0.22747,-0.09121,0.00916,0.02894,0.04212,-0.10440,-0.26850,-0.49707
-0.67143,-0.89927,0.33370,1.50000,-0.28681,-1.49414,-1.37399,-1.07509,-0.83919,-0.62015,-0.61722,-0.59158,-0.59524,-0.61648,-0.61648,-0.59084,-0.42527,-0.22747,-0.09121,0.00916,0.02894,0.04212,-0.10440,-0.26850,-0.49707
-0.67143,-0.89927,0.33370,1.50000,-0.28681,-1.49414,-1.37399,-1.07509,-0.83919,-0.62015,-0.61722,-0.59158,-0.59524,-0.61648,-0.61648,-0.59084,-0.42527,-0.22747,-0.09121,0.00916,0.02894,0.04212,-0.10440,-0.26850,-0.49707
-0.67143,-0.89927,0.33370,1.50000,-0.28681,-1.49414,-1.37399,-1.07509,-0.83919,-0.62015,-0.61722,-0.59158,-0.59524,-0.61648,-0.61648,-0.59084,-0.42527,-0.22747,-0.09121,0.00916,0.02894,0.04212,-0.10440,-0.26850,-0.49707
-0.67143,-0.89927,0.33370,1.50000,-0.28681,-1.49414,-1.37399,-1.07509,-0.83919,-0.62015,-0.61722,-0.59158,-0.59524,-0.61648,-0.61648,-0.59084,-0.42527,-0.22747,-0.09121,0.00916,0.02894,0.04212,-0.10440,-0.26850,-0.49707
-0.67143,-0.89927,0.33370,1.50000,-0.28681,-1.49414,-1.37399,-1.07509,-0.83919,-0.62015,-0.61722,-0.59158,-0.59524,-0.61648,-0.61648,-0.59084,-0.42527,-0.22747,-0.09121,0.00916,0.02894,0.04212,-0.10440,-0.26850,-0.49707
-0.67143,-0.89927,0.33370,1.50000,-0.28681,-1.49414,-1.37399,-1.07509,-0.83919,-0.62015,-0.61722,-0.59158,-0.59524,-0.61648,-0.61648,-0.59084,-0.42527,-0.22747,-0.09121,0.00916,0.02894,0.04212,-0.10440,-0.26850,-0.49707
-0.67143,-0.89927,0.33370,1.50000,-0.28681,-1.49414,-1.37399,-1.07509,-0.83919,-0.62015,-0.61722,-0.59158,-0.59524,-0.61648,-0.61648,-0.59084,-0.42527,-0.22747,-0.09121,0.00916,0.02894,0.04212,-0.10440,-0.26850,-0.49707
-0.67143,-0.89927,0.33370,1.50000,-0.28681,-1.49414,-1.37399,-1.07509,-0.83919,-0.62015,-0.61722,-0.59158,-0.59524,-0.61648,-0.61648,-0.59084,-0.42527,-0.22747,-0.09121,0.00916,0.02894,0.04212,-0.10440,-0.26850,-0.49707
-0.62747,-0.62161,-0.59231,-0.57399,-0.53077,-0.53223,-0.60623,-0.61648,-0.59231,-0.59670,-0.60989,-0.59670,-0.62161,-0.61575,-0.57912,-0.61429,-0.60696,-0.60110,-0.61136,-0.60989,-0.59158,-0.59524,-0.60842,-0.60989,-0.62747
-0.62747,-0.62161,-0.59231,-0.57399,-0.53077,-0.53223,-0.60623,-0.61648,-0.59231,-0.59670,-0.60989,-0.59670,-0.62161,-0.61575,-0.57912,-0.61429,-0.60696,-0.60110,-0.61136,-0.60989,-0.59158,-0.59524,-0.60842,-0.60989,-0.62747
-0.62747,-0.62161,-0.59231,-0.57399,-0.53077,-0.53223,-0.60623,-0.61648,-0.59231,-0.59670,-0.60989,-0.59670,-0.62161,-0.61575,-0.57912,-0.61429,-0.60696,-0.60110,-0.61136,-0.60989,-0.59158,-0.59524,-0.60842,-0.60989,-0.62747
-0.62747,-0.62161,-0.59231,-0.57399,-0.53077,-0.53223,-0.60623,-0.61648,-0.59231,-0.59670,-0.60989,-0.59670,-0.62161,-0.61575,-0.57912,-0.61429,-0.60696,-0.60110,-0.61136,-0.60989,-0.59158,-0.59524,-0.60842,-0.60989,-0.62747
-0.62747,-0.62161,-0.59231,-0.57399,-0.53077,-0.53223,-0.60623,-0.61648,-0.59231,-0.59670,-0.60989,-0.59670,-0.62161,-0.61575,-0.57912,-0.61429,-0.60696,-0.60110,-0.61136,-0.60989,-0.59158,-0.59524,-0.60842,-0.60989,-0.62747
-0.62747,-0.62161,-0.59231,-0.57399,-0.53077,-0.53223,-0.60623,-0.61648,-0.59231,-0.59670,-0.60989,-0.59670,-0.62161,-0.61575,-0.57912,-0.61429,-0.60696,-0.60110,-0.61136,-0.60989,-0.59158,-0.59524,-0.60842,-0.60989,-0.62747
-0.62747,-0.62161,-0.59231,-0.57399,-0.53077,-0.53223,-0.60623,-0.61648,-0.59231,-0.59670,-0.60989,-0.59670,-0.62161,-0.61575,-0.57912,-0.61429,-0.60696,-0.60110,-0.61136,-0.60989,-0.59158,-0.59524,-0.60842,-0.60989,-0.62747
-0.62747,-0.62161,-0.59231,-0.57399,-0.53077,-0.53223,-0.60623,-0.61648,-0.59231,-0.59670,-0.60989,-0.59670,-0.62161,-0.61575,-0.57912,-0.61429,-0.60696,-0.60110,-0.61136,-0.60989,-0.59158,-0.59524,-0.60842,-0.60989,-0.62747
-0.62747,-0.62161,-0.59231,-0.57399,-0.53077,-0.53223,-0.60623,-0.61648,-0.59231,-0.59670,-0.60989,-0.59670,-0.62161,-0.61575,-0.57912,-0.61429,-0.60696,-0.60110,-0.61136,-0.60989,-0.59158,-0.59524,-0.60842,-0.60989,-0.62747
-0.62747,-0.62161,-0.59231,-0.57399,-0.53077,-0.53223,-0.60623,-0.61648,-0.59231,-0.59670,-0.60989,-0.59670,-0.62161,-0.61575,-0.57912,-0.61429,-0.60696,-0.60110,-0.61136,-0.60989,-0.59158,-0.59524,-0.60842,-0.60989,-0.62747
-0.62747,-0.62161,-0.59231,-0.57399,-0.53077,-0.53223,-0.60623,-0.61648,-0.59231,-0.59670,-0.60989,-0.59670,-0.62161,-0.61575,-0.57912,-0.61429,-0.60696,-0.60110,-0.61136,-0.60989,-0.59158,-0.59524,-0.60842,-0.60989,-0.62747
-0.62747,-0.62161,-0.59231,-0.57399,-0.53077,-0.53223,-0.60623,-0.61648,-0.59231,-0.59670,-0.60989,-0.59670,-0.62161,-0.61575,-0.57912,-0.61429,-0.60696,-0.60110,-0.61136,-0.60989,-0.59158,-0.59524,-0.60842,-0.60989,-0.62747
-0.62747,-0.62161,-0.59231,-0.57399,-0.53077,-0.53223,-0.60623,-0.61648,-0.59231,-0.59670,-0.60989,-0.59670,-0.62161,-0.61575,-0.57912,-0.61429,-0.60696,-0.60110,-0.61136,-0.60989,-0.59158,-0.59524,-0.60842,-0.60989,-0.62747
-0.62747,-0.62161,-0.59231,-0.57399,-0.53077,-0.53223,-0.60623,-0.61648,-0.59231,-0.59670,-0.60989,-0.59670,-0.62161,-0.61575,-0.57912,-0.61429,-0.60696,-0.60110,-0.61136,-0.60989,-0.59158,-0.59524,-0.60842,-0.60989,-0.62747
-0.62747,-0.62161,-0.59231,-0.57399,-0.53077,-0.53223,-0.60623,-0.61648,-0.59231,-0.59670,-0.60989,-0.59670,-0.62161,-0.61575,-0.57912,-0.61429,-0.60696,-0.60110,-0.61136,-0.60989,-0.59158,-0.59524,-0.60842,-0.60989,-0.62747
-0.40549,-0.14615,-0.01062,-0.03407,-0.24945,-0.60916,-0.62161,-0.57766,-0.61282,-0.59524,-0.64799,-0.90879,0.31026,1.50000,-0.26264,-1.49707,-1.38425,-1.08095,-0.82747,-0.62674,-0.59670,-0.60256,-0.60110,-0.62747,-0.62747
-0.40549,-0.14615,-0.01062,-0.03407,-0.24945,-0.60916,-0.62161,-0.57766,-0.61282,-0.59524,-0.64799,-0.90879,0.31026,1.50000,-0.26264,-1.49707,-1.38425,-1.08095,-0.82747,-0.62674,-0.59670,-0.60256,-0.60110,-0.62747,-0.62747
-0.40549,-0.14615,-0.01062,-0.03407,-0.24945,-0.60916,-0.62161,-0.57766,-0.61282,-0.59524,-0.64799,-0.90879,0.31026,1.50000,-0.26264,-1.49707,-1.38425,-1.08095,-0.82747,-0.62674,-0.59670,-0.60256,-0.60110,-0.62747,-0.62747
-0.40549,-0.14615,-0.01062,-0.03407,-0.24945,-0.60916,-0.62161,-0.57766,-0.61282,-0.59524,-0.64799,-0.90879,0.31026,1.50000,-0.26264,-1.49707,-1.38425,-1.08095,-0.82747,-0.62674,-0.59670,-0.60256,-0.60110,-0.62747,-0.62747
-0.40549,-0.14615,-0.01062,-0.03407,-0.24945,-0.60916,-0.62161,-0.57766,-0.61282,-0.59524,-0.64799,-0.90879,0.31026,1.50000,-0.26264,-1.49707,-1.38425,-1.08095,-0.82747,-0.62674,-0.59670,-0.60256,-0.60110,-0.62747,-0.62747
-0.40549,-0.14615,-0.01062,-0.03407,-0.24945,-0.60916,-0.62161,-0.57766,-0.61282,-0.59524,-0.64799,-0.90879,0.31026,1.50000,-0.26264,-1.49707,-1.38425,-1.08095,-0.82747,-0.62674,-0.59670,-0.60256,-0.60110,-0.62747,-0.62747
-0.40549,-0.14615,-0.01062,-0.03407,-0.24945,-0.60916,-0.62161,-0.57766,-0.61282,-0.59524,-0.64799,-0.90879,0.31026,1.50000,-0.26264,-1.49707,-1.38425,-1.08095,-0.82747,-0.62674,-0.59670,-0.60256,-0.60110,-0.62747,-0.62747
-0.40549,-0.14615,-0.01062,-0.03407,-0.24945,-0.60916,-0.62161,-0.57766,-0.61282,-0.59524,-0.64799,-0.90879,0.31026,1.50000,-0.26264,-1.49707,-1.38425,-1.08095,-0.82747,-0.62674,-0.59670,-0.60256,-0.60110,-0.62747,-0.62747
-0.40549,-0.14615,-0.01062,-0.03407,-0.24945,-0.60916,-0.62161,-0.57766,-0.61282,-0.59524,-0.64799,-0.90879,0.31026,1.50000,-0.26264,-1.49707,-1.38425,-1.08095,-0.82747,-0.62674,-0.59670,-0.60256,-0.60110,-0.62747,-0.62747
-0.40549,-0.14615,-0.01062,-0.03407,-0.24945,-0.60916,-0.62161,-0.57766,-0.61282,-0.59524,-0.64799,-0.90879,0.31026,1.50000,-0.26264,-1.49707,-1.38425,-1.08095,-0.82747,-0.62674,-0.59670,-0.60256,-0.60110,-0.62747,-0.62747
-0.40549,-0.14615,-0.01062,-0.03407,-0.24945,-0.60916,-0.62161,-0.57766,-0.61282,-0.59524,-0.64799,-0.90879,0.31026,1.50000,-0.26264,-1.49707,-1.38425,-1.08095,-0.82747,-0.62674,-0.59670,-0.60256,-0.60110,-0.62747,-0.62747
-0.40549,-0.14615,-0.01062,-0.03407,-0.24945,-0.60916,-0.62161,-0.57766,-0.61282,-0.59524,-0.64799,-0.90879,0.31026,1.50000,-0.26264,-1.49707,-1.38425,-1.08095,-0.82747,-0.62674,-0.59670,-0.60256,-0.60110,-0.62747,-0.62747
-0.40549,-0.14615,-0.01062,-0.03407,-0.24945,-0.60916,-0.62161,-0.57766,-0.61282,-0.59524,-0.64799,-0.90879,0.31026,1.50000,-0.26264,-1.49707,-1.38425,-1.08095,-0.82747,-0.62674,-0.59670,-0.60256,-0.60110,-0.62747,-0.62747
-0.40549,-0.14615,-0.01062,-0.03407,-0.24945,-0.60916,-0.62161,-0.57766,-0.61282,-0.59524,-0.64799,-0.90879,0.31026,1.50000,-0.26264,-1.49707,-1.38425,-1.08095,-0.82747,-0.62674,-0.59670,-0.60256,-0.60110,-0.62747,-0.62747
-0.40549,-0.14615,-0.01062,-0.03407,-0.24945,-0.60916,-0.62161,-0.57766,-0.61282,-0.59524,-0.64799,-0.90879,0.31026,1.50000,-0.26264,-1.49707,-1.38425,-1.08095,-0.82747,-0.62674,-0.59670,-0.60256,-0.60110,-0.62747,-0.62747
-0.59084,-0.42088,-0.23919,-0.09853,-0.01795,0.02894,0.05385,-0.09267,-0.27436,-0.48388,-0.60549,-0.60989,-0.57912,-0.59158,-0.53810,-0.53077,-0.62747,-0.62161,-0.59670,-0.59670,-0.60989,-0.59670,-0.62747,-0.60989,-0.57326
-0.59084,-0.42088,-0.23919,-0.09853,-0.01795,0.02894,0.05385,-0.09267,-0.27436,-0.48388,-0.60549,-0.60989,-0.57912,-0.59158,-0.53810,-0.53077,-0.62747,-0.62161,-0.59670,-0.59670,-0.60989,-0.59670,-0.62747,-0.60989,-0.57326
-0.59084,-0.42088,-0.23919,-0.09853,-0.01795,0.02894,0.05385,-0.09267,-0.27436,-0.48388,-0.60549,-0.60989,-0.57912,-0.59158,-0.53810,-0.53077,-0.62747,-0.62161,-0.59670,-0.59670,-0.60989,-0.59670,-0.62747,-0.60989,-0.57326
-0.59084,-0.42088,-0.23919,-0.09853,-0.01795,0.02894,0.05385,-0.09267,-0.27436,-0.48388,-0.60549,-0.60989,-0.57912,-0.59158,-0.53810,-0.53077,-0.62747,-0.62161,-0.59670,-0.59670,-0.60989,-0.59670,-0.62747,-0.60989,-0.57326
-0.59084,-0.42088,-0.23919,-0.09853,-0.01795,0.02894,0.05385,-0.09267,-0.27436,-0.48388,-0.60549,-0.60989,-0.57912,-0.59158,-0.53810,-0.53077,-0.62747,-0.62161,-0.59670,-0.59670,-0.60989,-0.59670,-0.62747,-0.60989,-0.57326
-0.59084,-0.42088,-0.23919,-0.09853,-0.01795,0.02894,0.05385,-0.09267,-0.27436,-0.48388,-0.60549,-0.60989,-0.57912,-0.59158,-0.53810,-0.53077,-0.62747,-0.62161,-0.59670,-0.59670,-0.60989,-0.59670,-0.62747,-0.60989,-0.57326
-0.59084,-0.42088,-0.23919,-0.09853,-0.01795,0.02894,0.05385,-0.09267,-0.27436,-0.48388,-0.60549,-0.60989,-0.57912,-0.59158,-0.53810,-0.53077,-0.62747,-0.62161,-0.59670,-0.59670,-0.60989,-0.59670,-0.62747,-0.60989,-0.57326
-0.59084,-0.42088,-0.23919,-0.09853,-0.01795,0.02894,0.05385,-0.09267,-0.27436,-0.48388,-0.60549,-0.60989,-0.57912,-0.59158,-0.53810,-0.53077,-0.62747,-0.62161,-0.59670,-0.59670,-0.60989,-0.59670,-0.62747,-0.60989,-0.57326
-0.59084,-0.42088,-0.23919,-0.09853,-0.01795,0.02894,0.05385,-0.09267,-0.27436,-0.48388,-0.60549,-0.60989,-0.57912,-0.59158,-0.53810,-0.53077,-0.62747,-0.62161,-0.59670,-0.59670,-0.60989,-0.59670,-0.62747,-0.60989,-0.57326
-0.59084,-0.42088,-0.23919,-0.09853,-0.01795,0.02894,0.05385,-0.09267,-0.27436,-0.48388,-0.60549,-0.60989,-0.57912,-0.59158,-0.53810,-0.53077,-0.62747,-0.62161,-0.59670,-0.59670,-0.60989,-0.59670,-0.62747,-0.60989,-0.57326
-0.59084,-0.42088,-0.23919,-0.09853,-0.01795,0.02894,0.05385,-0.09267,-0.27436,-0.48388,-0.60549,-0.60989,-0.57912,-0.59158,-0.53810,-0.53077,-0.62747,-0.62161,-0.59670,-0.59670,-0.60989,-0.59670,-0.62747,-0.60989,-0.57326
-0.59084,-0.42088,-0.23919,-0.09853,-0.01795,0.02894,0.05385,-0.09267,-0.27436,-0.48388,-0.60549,-0.60989,-0.57912,-0.59158,-0.53810,-0.53077,-0.62747,-0.62161,-0.59670,-0.59670,-0.60989,-0.59670,-0.62747,-0.60989,-0.57326
-0.59084,-0.42088,-0.23919,-0.09853,-0.01795,0.02894,0.05385,-0.09267,-0.27436,-0.48388,-0.60549,-0.60989,-0.57912,-0.59158,-0.53810,-0.53077,-0.62747,-0.62161,-0.59670,-0.59670,-0.60989,-0.59670,-0.62747,-0.60989,-0.57326
-0.59084,-0.42088,-0.23919,-0.09853,-0.01795,0.02894,0.05385,-0.09267,-0.27436,-0.48388,-0.60549,-0.60989,-0.57912,-0.59158,-0.53810,-0.53077,-0.62747,-0.62161,-0.59670,-0.59670,-0.60989,-0.59670,-0.62747,-0.60989,-0.57326
-0.60256,-0.61429,-0.59524,-0.63919,-0.61575,-0.59084,-0.58498,-0.59524,-0.61136,-0.61136,-0.39377,-0.14542,0.00623,-0.03993,-0.23480,-0.62747,-0.62747,-0.58498,-0.59084,-0.58938,-0.64799,-0.90879,0.29853,1.50000,-0.23333
-0.60256,-0.61429,-0.59524,-0.63919,-0.61575,-0.59084,-0.58498,-0.59524,-0.61136,-0.61136,-0.39377,-0.14542,0.00623,-0.03993,-0.23480,-0.62747,-0.62747,-0.58498,-0.59084,-0.58938,-0.64799,-0.90879,0.29853,1.50000,-0.23333
-0.60256,-0.61429,-0.59524,-0.63919,-0.61575,-0.59084,-0.58498,-0.59524,-0.61136,-0.61136,-0.39377,-0.14542,0.00623,-0.03993,-0.23480,-0.62747,-0.62747,-0.58498,-0.59084,-0.58938,-0.64799,-0.90879,0.29853,1.50000,-0.23333
-0.60256,-0.61429,-0.59524,-0.63919,-0.61575,-0.59084,-0.58498,-0.59524,-0.61136,-0.61136,-0.39377,-0.14542,0.00623,-0.03993,-0.23480,-0.62747,-0.62747,-0.58498,-0.59084,-0.58938,-0.64799,-0.90879,0.29853,1.50000,-0.23333
-0.60256,-0.61429,-0.59524,-0.63919,-0.61575,-0.59084,-0.58498,-0.59524,-0.61136,-0.61136,-0.39377,-0.14542,0.00623,-0.03993,-0.23480,-0.62747,-0.62747,-0.58498,-0.59084,-0.58938,-0.64799,-0.90879,0.29853,1.50000,-0.23333
-0.60256,-0.61429,-0.59524,-0.63919,-0.61575,-0.59084,-0.58498,-0.59524,-0.61136,-0.61136,-0.39377,-0.14542,0.00623,-0.03993,-0.23480,-0.62747,-0.62747,-0.58498,-0.59084,-0.58938,-0.64799,-0.90879,0.29853,1.50000,-0.23333
-0.60256,-0.61429,-0.59524,-0.63919,-0.61575,-0.59084,-0.58498,-0.59524,-0.61136,-0.61136,-0.39377,-0.14542,0.00623,-0.03993,-0.23480,-0.62747,-0.62747,-0.58498,-0.59084,-0.58938,-0.64799,-0.90879,0.29853,1.50000,-0.23333
-0.60256,-0.61429,-0.59524,-0.63919,-0.61575,-0.59084,-0.58498,-0.59524,-0.61136,-0.61136,-0.39377,-0.14542,0.00623,-0.03993,-0.23480,-0.62747,-0.62747,-0.58498,-0.59084,-0.58938,-0.64799,-0.90879,0.29853,1.50000,-0.23333
-0.60256,-0.61429,-0.59524,-0.63919,-0.61575,-0.59084,-0.58498,-0.59524,-0.61136,-0.61136,-0.39377,-0.14542,0.00623,-0.03993,-0.23480,-0.62747,-0.62747,-0.58498,-0.59084,-0.58938,-0.64799,-0.90879,0.29853,1.50000,-0.23333
-0.60256,-0.61429,-0.59524,-0.63919,-0.61575,-0.59084,-0.58498,-0.59524,-0.61136,-0.61136,-0.39377,-0.14542,0.00623,-0.03993,-0.23480,-0.62747,-0.62747,-0.58498,-0.59084,-0.58938,-0.64799,-0.90879,0.29853,1.50000,-0.23333
-0.60256,-0.61429,-0.59524,-0.63919,-0.61575,-0.59084,-0.58498,-0.59524,-0.61136,-0.61136,-0.39377,-0.14542,0.00623,-0.03993,-0.23480,-0.62747,-0.62747,-0.58498,-0.59084,-0.58938,-0.64799,-0.90879,0.29853,1.50000,-0.23333
-0.60256,-0.61429,-0.59524,-0.63919,-0.61575,-0.59084,-0.58498,-0.59524,-0.61136,-0.61136,-0.39377,-0.14542,0.00623,-0.03993,-0.23480,-0.62747,-0.62747,-0.58498,-0.59084,-0.58938,-0.64799,-0.90879,0.29853,1.50000,-0.23333
-0.60256,-0.61429,-0.59524,-0.63919,-0.61575,-0.59084,-0.58498,-0.59524,-0.61136,-0.61136,-0.39377,-0.14542,0.00623,-0.03993,-0.23480,-0.62747,-0.62747,-0.58498,-0.59084,-0.58938,-0.64799,-0.90879,0.29853,1.50000,-0.23333
-0.60256,-0.61429,-0.59524,-0.63919,-0.61575,-0.59084,-0.58498,-0.59524,-0.61136,-0.61136,-0.39377,-0.14542,0.00623,-0.03993,-0.23480,-0.62747,-0.62747,-0.58498,-0.59084,-0.58938,-0.64799,-0.90879,0.29853,1.50000,-0.23333
-0.60256,-0.61429,-0.59524,-0.63919,-0.61575,-0.59084,-0.58498,-0.59524,-0.61136,-0.61136,-0.39377,-0.14542,0.00623,-0.03993,-0.23480,-0.62747,-0.62747,-0.58498,-0.59084,-0.58938,-0.64799,-0.90879,0.29853,1.50000,-0.23333
-0.60256,-0.61429,-0.59524,-0.63919,-0.61575,-0.59084,-0.58498,-0.59524,-0.61136,-0.61136,-0.39377,-0.14542,0.00623,-0.03993,-0.23480,-0.62747,-0.62747,-0.58498,-0.59084,-0.58938,-0.64799,-0.90879,0.29853,1.50000,-0.23333
-1.49267,-1.38718,-1.08462,-0.85018,-0.62454,-0.58352,-0.60916,-0.61355,-0.61648,-0.62747,-0.59084,-0.42747,-0.25678,-0.08681,-0.01795,0.02894,0.03553,-0.10440,-0.26850,-0.50147,-0.62821,-0.62747,-0.57985,-0.58352,-0.53810
-1.49267,-1.38718,-1.08462,-0.85018,-0.62454,-0.58352,-0.60916,-0.61355,-0.61648,-0.62747,-0.59084,-0.42747,-0.25678,-0.08681,-0.01795,0.02894,0.03553,-0.10440,-0.26850,-0.50147,-0.62821,-0.62747,-0.57985,-0.58352,-0.53810
-1.49267,-1.38718,-1.08462,-0.85018,-0.62454,-0.58352,-0.60916,-0.61355,-0.61648,-0.62747,-0.59084,-0.42747,-0.25678,-0.08681,-0.01795,0.02894,0.03553,-0.10440,-0.26850,-0.50147,-0.62821,-0.62747,-0.57985,-0.58352,-0.53810
-1.49267,-1.38718,-1.08462,-0.85018,-0.62454,-0.58352,-0.60916,-0.61355,-0.61648,-0.62747,-0.59084,-0.42747,-0.25678,-0.08681,-0.01795,0.02894,0.03553,-0.10440,-0.26850,-0.50147,-0.62821,-0.62747,-0.57985,-0.58352,-0.53810
-1.49267,-1.38718,-1.08462,-0.85018,-0.62454,-0.58352,-0.60916,-0.61355,-0.61648,-0.62747,-0.59084,-0.42747,-0.25678,-0.08681,-0.01795,0.02894,0.03553,-0.10440,-0.26850,-0.50147,-0.62821,-0.62747,-0.57985,-0.58352,-0.53810
-1.49267,-1.38718,-1.08462,-0.85018,-0.62454,-0.58352,-0.60916,-0.61355,-0.61648,-0.62747,-0.59084,-0.42747,-0.25678,-0.08681,-0.01795,0.02894,0.03553,-0.10440,-0.26850,-0.50147,-0.62821,-0.62747,-0.57985,-0.58352,-0.53810
-1.49267,-1.38718,-1.08462,-0.85018,-0.62454,-0.58352,-0.60916,-0.61355,-0.61648,-0.62747,-0.59084,-0.42747,-0.25678,-0.08681,-0.01795,0.02894,0.03553,-0.10440,-0.26850,-0.50147,-0.62821,-0.62747,-0.57985,-0.58352,-0.53810
-1.49267,-1.38718,-1.08462,-0.85018,-0.62454,-0.58352,-0.60916,-0.61355,-0.61648,-0.62747,-0.59084,-0.42747,-0.25678,-0.08681,-0.01795,0.02894,0.03553,-0.10440,-0.26850,-0.50147,-0.62821,-0.62747,-0.57985,-0.58352,-0.53810
-1.49267,-1.38718,-1.08462,-0.85018,-0.62454,-0.58352,-0.60916,-0.61355,-0.61648,-0.62747,-0.59084,-0.42747,-0.25678,-0.08681,-0.01795,0.02894,0.03553,-0.10440,-0.26850,-0.50147,-0.62821,-0.62747,-0.57985,-0.58352,-0.53810
-1.49267,-1.38718,-1.08462,-0.85018,-0.62454,-0.58352,-0.60916,-0.61355,-0.61648,-0.62747,-0.59084,-0.42747,-0.25678,-0.08681,-0.01795,0.02894,0.03553,-0.10440,-0.26850,-0.50147,-0.62821,-0.62747,-0.57985,-0.58352,-0.53810
-1.49267,-1.38718,-1.08462,-0.85018,-0.62454,-0.58352,-0.60916,-0.61355,-0.61648,-0.62747,-0.59084,-0.42747,-0.25678,-0.08681,-0.01795,0.02894,0.03553,-0.10440,-0.26850,-0.50147,-0.62821,-0.62747,-0.57985,-0.58352,-0.53810
-1.49267,-1.38718,-1.08462,-0.85018,-0.62454,-0.58352,-0.60916,-0.61355,-0.61648,-0.62747,-0.59084,-0.42747,-0.25678,-0.08681,-0.01795,0.02894,0.03553,-0.10440,-0.26850,-0.50147,-0.62821,-0.62747,-0.57985,-0.58352,-0.53810
-1.49267,-1.38718,-1.08462,-0.85018,-0.62454,-0.58352,-0.60916,-0.61355,-0.61648,-0.62747,-0.59084,-0.42747,-0.25678,-0.08681,-0.01795,0.02894,0.03553,-0.10440,-0.26850,-0.50147,-0.62821,-0.62747,-0.57985,-0.58352,-0.53810
-1.49267,-1.38718,-1.08462,-0.85018,-0.62454,-0.58352,-0.60916,-0.61355,-0.61648,-0.62747,-0.59084,-0.42747,-0.25678,-0.08681,-0.01795,0.02894,0.03553,-0.10440,-0.26850,-0.50147,-0.62821,-0.62747,-0.57985,-0.58352,-0.53810
-1.49267,-1.38718,-1.08462,-0.85018,-0.62454,-0.58352,-0.60916,-0.61355,-0.61648,-0.62747,-0.59084,-0.42747,-0.25678,-0.08681,-0.01795,0.02894,0.03553,-0.10440,-0.26850,-0.50147,-0.62821,-0.62747,-0.57985,-0.58352,-0.53810
-0.54469,-0.63919,-0.60989,-0.59670,-0.61429,-0.60256,-0.60256,-0.62747,-0.62747,-0.59084,-0.60842,-0.60549,-0.61136,-0.61648,-0.62747,-0.59817,-0.61429,-0.59158,-0.60989,-0.62821,-0.39890,-0.13956,-0.01648,-0.03260,-0.23480
-0.54469,-0.63919,-0.60989,-0.59670,-0.61429,-0.60256,-0.60256,-0.62747,-0.62747,-0.59084,-0.60842,-0.60549,-0.61136,-0.61648,-0.62747,-0.59817,-0.61429,-0.59158,-0.60989,-0.62821,-0.39890,-0.13956,-0.01648,-0.03260,-0.23480
-0.54469,-0.63919,-0.60989,-0.59670,-0.61429,-0.60256,-0.60256,-0.62747,-0.62747,-0.59084,-0.60842,-0.60549,-0.61136,-0.61648,-0.62747,-0.59817,-0.61429,-0.59158,-0.60989,-0.62821,-0.39890,-0.13956,-0.01648,-0.03260,-0.23480
-0.54469,-0.63919,-0.60989,-0.59670,-0.61429,-0.60256,-0.60256,-0.62747,-0.62747,-0.59084,-0.60842,-0.60549,-0.61136,-0.61648,-0.62747,-0.59817,-0.61429,-0.59158,-0.60989,-0.62821,-0.39890,-0.13956,-0.01648,-0.03260,-0.23480
-0.54469,-0.63919,-0.60989,-0.59670,-0.61429,-0.60256,-0.60256,-0.62747,-0.62747,-0.59084,-0.60842,-0.60549,-0.61136,-0.61648,-0.62747,-0.59817,-0.61429,-0.59158,-0.60989,-0.62821,-0.39890,-0.13956,-0.01648,-0.03260,-0.23480
-0.54469,-0.63919,-0.60989,-0.59670,-0.61429,-0.60256,-0.60256,-0.62747,-0.62747,-0.59084,-0.60842,-0.60549,-0.61136,-0.61648,-0.62747,-0.59817,-0.61429,-0.59158,-0.60989,-0.62821,-0.39890,-0.13956,-0.01648,-0.03260,-0.23480
-0.54469,-0.63919,-0.60989,-0.59670,-0.61429,-0.60256,-0.60256,-0.62747,-0.62747,-0.59084,-0.60842,-0.60549,-0.61136,-0.61648,-0.62747,-0.59817,-0.61429,-0.59158,-0.60989,-0.62821,-0.39890,-0.13956,-0.01648,-0.03260,-0.23480
-0.54469,-0.63919,-0.60989,-0.59670,-0.61429,-0.60256,-0.60256,-0.62747,-0.62747,-0.59084,-0.60842,-0.60549,-0.61136,-0.61648,-0.62747,-0.59817,-0.61429,-0.59158,-0.60989,-0.62821,-0.39890,-0.13956,-0.01648,-0.03260,-0.23480
-0.54469,-0.63919,-0.60989,-0.59670,-0.61429,-0.60256,-0.60256,-0.62747,-0.62747,-0.59084,-0.60842,-0.60549,-0.61136,-0.61648,-0.62747,-0.59817,-0.61429,-0.59158,-0.60989,-0.62821,-0.39890,-0.13956,-0.01648,-0.03260,-0.23480
-0.54469,-0.63919,-0.60989,-0.59670,-0.61429,-0.60256,-0.60256,-0.62747,-0.62747,-0.59084,-0.60842,-0.60549,-0.61136,-0.61648,-0.62747,-0.59817,-0.61429,-0.59158,-0.60989,-0.62821,-0.39890,-0.13956,-0.01648,-0.03260,-0.23480
-0.54469,-0.63919,-0.60989,-0.59670,-0.61429,-0.60256,-0.60256,-0.62747,-0.62747,-0.59084,-0.60842,-0.60549,-0.61136,-0.61648,-0.62747,-0.59817,-0.61429,-0.59158,-0.60989,-0.62821,-0.39890,-0.13956,-0.01648,-0.03260,-0.23480
-0.54469,-0.63919,-0.60989,-0.59670,-0.61429,-0.60256,-0.60256,-0.62747,-0.62747,-0.59084,-0.60842,-0.60549,-0.61136,-0.61648,-0.62747,-0.59817,-0.61429,-0.59158,-0.60989,-0.62821,-0.39890,-0.13956,-0.01648,-0.03260,-0.23480
-0.54469,-0.63919,-0.60989,-0.59670,-0.61429,-0.60256,-0.60256,-0.62747,-0.62747,-0.59084,-0.60842,-0.60549,-0.61136,-0.61648,-0.62747,-0.59817,-0.61429,-0.59158,-0.60989,-0.62821,-0.39890,-0.13956,-0.01648,-0.03260,-0.23480
-0.54469,-0.63919,-0.60989,-0.59670,-0.61429,-0.60256,-0.60256,-0.62747,-0.62747,-0.59084,-0.60842,-0.60549,-0.61136,-0.61648,-0.62747,-0.59817,-0.61429,-0.59158,-0.60989,-0.62821,-0.39890,-0.13956,-0.01648,-0.03260,-0.23480
-0.54469,-0.63919,-0.60989,-0.59670,-0.61429,-0.60256,-0.60256,-0.62747,-0.62747,-0.59084,-0.60842,-0.60549,-0.61136,-0.61648,-0.62747,-0.59817,-0.61429,-0.59158,-0.60989,-0.62821,-0.39890,-0.13956,-0.01648,-0.03260,-0.23480
-0.62747,-0.61575,-0.57399,-0.59670,-0.59158,-0.64799,-0.90952,0.28681,1.50000,-0.23919,-1.48022,-1.38864,-1.08095,-0.85018,-0.61868,-0.59670,-0.58938,-0.59670,-0.61722,-0.61648,-0.57985,-0.43260,-0.23993,-0.09853,-0.01795
-0.62747,-0.61575,-0.57399,-0.59670,-0.59158,-0.64799,-0.90952,0.28681,1.50000,-0.23919,-1.48022,-1.38864,-1.08095,-0.85018,-0.61868,-0.59670,-0.58938,-0.59670,-0.61722,-0.61648,-0.57985,-0.43260,-0.23993,-0.09853,-0.01795
-0.62747,-0.61575,-0.57399,-0.59670,-0.59158,-0.64799,-0.90952,0.28681,1.50000,-0.23919,-1.48022,-1.38864,-1.08095,-0.85018,-0.61868,-0.59670,-0.58938,-0.59670,-0.61722,-0.61648,-0.57985,-0.43260,-0.23993,-0.09853,-0.01795
-0.62747,-0.61575,-0.57399,-0.59670,-0.59158,-0.64799,-0.90952,0.28681,1.50000,-0.23919,-1.48022,-1.38864,-1.08095,-0.85018,-0.61868,-0.59670,-0.58938,-0.59670,-0.61722,-0.61648,-0.57985,-0.43260,-0.23993,-0.09853,-0.01795
-0.62747,-0.61575,-0.57399,-0.59670,-0.59158,-0.64799,-0.90952,0.28681,1.50000,-0.23919,-1.48022,-1.38864,-1.08095,-0.85018,-0.61868,-0.59670,-0.58938,-0.59670,-0.61722,-0.61648,-0.57985,-0.43260,-0.23993,-0.09853,-0.01795
-0.62747,-0.61575,-0.57399,-0.59670,-0.59158,-0.64799,-0.90952,0.28681,1.50000,-0.23919,-1.48022,-1.38864,-1.08095,-0.85018,-0.61868,-0.59670,-0.58938,-0.59670,-0.61722,-0.61648,-0.57985,-0.43260,-0.23993,-0.09853,-0.01795
-0.62747,-0.61575,-0.57399,-0.59670,-0.59158,-0.64799,-0.90952,0.28681,1.50000,-0.23919,-1.48022,-1.38864,-1.08095,-0.85018,-0.61868,-0.59670,-0.58938,-0.59670,-0.61722,-0.61648,-0.57985,-0.43260,-0.23993,-0.09853,-0.01795
-0.62747,-0.61575,-0.57399,-0.59670,-0.59158,-0.64799,-0.90952,0.28681,1.50000,-0.23919,-1.48022,-1.38864,-1.08095,-0.85018,-0.61868,-0.59670,-0.58938,-0.59670,-0.61722,-0.61648,-0.57985,-0.43260,-0.23993,-0.09853,-0.01795
-0.62747,-0.61575,-0.57399,-0.59670,-0.59158,-0.64799,-0.90952,0.28681,1.50000,-0.23919,-1.48022,-1.38864,-1.08095,-0.85018,-0.61868,-0.59670,-0.58938,-0.59670,-0.61722,-0.61648,-0.57985,-0.43260,-0.23993,-0.09853,-0.01795
-0.62747,-0.61575,-0.57399,-0.59670,-0.59158,-0.64799,-0.90952,0.28681,1.50000,-0.23919,-1.48022,-1.38864,-1.08095,-0.85018,-0.61868,-0.59670,-0.58938,-0.59670,-0.61722,-0.61648,-0.57985,-0.43260,-0.23993,-0.09853,-0.01795
-0.62747,-0.61575,-0.57399,-0.59670,-0.59158,-0.64799,-0.90952,0.28681,1.50000,-0.23919,-1.48022,-1.38864,-1.08095,-0.85018,-0.61868,-0.59670,-0.58938,-0.59670,-0.61722,-0.61648,-0.57985,-0.43260,-0.23993,-0.09853,-0.01795
-0.62747,-0.61575,-0.57399,-0.59670,-0.59158,-0.64799,-0.90952,0.28681,1.50000,-0.23919,-1.48022,-1.38864,-1.08095,-0.85018,-0.61868,-0.59670,-0.58938,-0.59670,-0.61722,-0.61648,-0.57985,-0.43260,-0.23993,-0.09853,-0.01795
-0.62747,-0.61575,-0.57399,-0.59670,-0.59158,-0.64799,-0.90952,0.28681,1.50000,-0.23919,-1.48022,-1.38864,-1.08095,-0.85018,-0.61868,-0.59670,-0.58938,-0.59670,-0.61722,-0.61648,-0.57985,-0.43260,-0.23993,-0.09853,-0.01795
-0.62747,-0.61575,-0.57399,-0.59670,-0.59158,-0.64799,-0.90952,0.28681,1.50000,-0.23919,-1.48022,-1.38864,-1.08095,-0.85018,-0.61868,-0.59670,-0.58938,-0.59670,-0.61722,-0.61648,-0.57985,-0.43260,-0.23993,-0.09853,-0.01795
-0.62747,-0.61575,-0.57399,-0.59670,-0.59158,-0.64799,-0.90952,0.28681,1.50000,-0.23919,-1.48022,-1.38864,-1.08095,-0.85018,-0.61868,-0.59670,-0.58938,-0.59670,-0.61722,-0.61648,-0.57985,-0.43260,-0.23993,-0.09853,-0.01795
0.02894,0.03040,-0.09853,-0.28022,-0.48242,-0.62161,-0.62747,-0.57326,-0.59670,-0.52637,-0.53077,-0.61575,-0.62967,-0.60549,-0.59158,-0.61282,-0.61429,-0.62747,-0.60989,-0.57912,-0.59670,-0.61429,-0.59524,-0.61429,-0.62747
0.02894,0.03040,-0.09853,-0.28022,-0.48242,-0.62161,-0.62747,-0.57326,-0.59670,-0.52637,-0.53077,-0.61575,-0.62967,-0.60549,-0.59158,-0.61282,-0.61429,-0.62747,-0.60989,-0.57912,-0.59670,-0.61429,-0.59524,-0.61429,-0.62747
0.02894,0.03040,-0.09853,-0.28022,-0.48242,-0.62161,-0.62747,-0.57326,-0.59670,-0.52637,-0.53077,-0.61575,-0.62967,-0.60549,-0.59158,-0.61282,-0.61429,-0.62747,-0.60989,-0.57912,-0.59670,-0.61429,-0.59524,-0.61429,-0.62747
0.02894,0.03040,-0.09853,-0.28022,-0.48242,-0.62161,-0.62747,-0.57326,-0.59670,-0.52637,-0.53077,-0.61575,-0.62967,-0.60549,-0.59158,-0.61282,-0.61429,-0.62747,-0.60989,-0.57912,-0.59670,-0.61429,-0.59524,-0.61429,-0.62747
0.02894,0.03040,-0.09853,-0.28022,-0.48242,-0.62161,-0.62747,-0.57326,-0.59670,-0.52637,-0.53077,-0.61575,-0.62967,-0.60549,-0.59158,-0.61282,-0.61429,-0.62747,-0.60989,-0.57912,-0.59670,-0.61429,-0.59524,-0.61429,-0.62747
0.02894,0.03040,-0.09853,-0.28022,-0.48242,-0.62161,-0.62747,-0.57326,-0.59670,-0.52637,-0.53077,-0.61575,-0.62967,-0.60549,-0.59158,-0.61282,-0.61429,-0.62747,-0.60989,-0.57912,-0.59670,-0.61429,-0.59524,-0.61429,-0.62747
0.02894,0.03040,-0.09853,-0.28022,-0.48242,-0.62161,-0.62747,-0.57326,-0.59670,-0.52637,-0.53077,-0.61575,-0.62967,-0.60549,-0.59158,-0.61282,-0.61429,-0.62747,-0.60989,-0.57912,-0.59670,-0.61429,-0.59524,-0.61429,-0.62747
0.02894,0.03040,-0.09853,-0.28022,-0.48242,-0.62161,-0.62747,-0.57326,-0.59670,-0.52637,-0.53077,-0.61575,-0.62967,-0.60549,-0.59158,-0.61282,-0.61429,-0.62747,-0.60989,-0.57912,-0.59670,-0.61429,-0.59524,-0.61429,-0.62747
0.02894,0.03040,-0.09853,-0.28022,-0.48242,-0.62161,-0.62747,-0.57326,-0.59670,-0.52637,-0.53077,-0.61575,-0.62967,-0.60549,-0.59158,-0.61282,-0.61429,-0.62747,-0.60989,-0.57912,-0.59670,-0.61429,-0.59524,-0.61429,-0.62747
0.02894,0.03040,-0.09853,-0.28022,-0.48242,-0.62161,-0.62747,-0.57326,-0.59670,-0.52637,-0.53077,-0.61575,-0.62967,-0.60549,-0.59158,-0.61282,-0.61429,-0.62747,-0.60989,-0.57912,-0.59670,-0.61429,-0.59524,-0.61429,-0.62747
0.02894,0.03040,-0.09853,-0.28022,-0.48242,-0.62161,-0.62747,-0.57326,-0.59670,-0.52637,-0.53077,-0.61575,-0.62967,-0.60549,-0.59158,-0.61282,-0.61429,-0.62747,-0.60989,-0.57912,-0.59670,-0.61429,-0.59524,-0.61429,-0.62747
0.02894,0.03040,-0.09853,-0.28022,-0.48242,-0.62161,-0.62747,-0.57326,-0.59670,-0.52637,-0.53077,-0.61575,-0.62967,-0.60549,-0.59158,-0.61282,-0.61429,-0.62747,-0.60989,-0.57912,-0.59670,-0.61429,-0.59524,-0.61429,-0.62747
0.02894,0.03040,-0.09853,-0.28022,-0.48242,-0.62161,-0.62747,-0.57326,-0.59670,-0.52637,-0.53077,-0.61575,-0.62967,-0.60549,-0.59158,-0.61282,-0.61429,-0.62747,-0.60989,-0.57912,-0.59670,-0.61429,-0.59524,-0.61429,-0.62747
0.02894,0.03040,-0.09853,-0.28022,-0.48242,-0.62161,-0.62747,-0.57326,-0.59670,-0.52637,-0.53077,-0.61575,-0.62967,-0.60549,-0.59158,-0.61282,-0.61429,-0.62747,-0.60989,-0.57912,-0.59670,-0.61429,-0.59524,-0.61429,-0.62747
0.02894,0.03040,-0.09853,-0.28022,-0.48242,-0.62161,-0.62747,-0.57326,-0.59670,-0.52637,-0.53077,-0.61575,-0.62967,-0.60549,-0.59158,-0.61282,-0.61429,-0.62747,-0.60989,-0.57912,-0.59670,-0.61429,-0.59524,-0.61429,-0.62747
-0.59524,-0.60842,-0.59670,-0.61282,-0.63919,-0.40549,-0.13956,-0.01648,-0.03260,-0.22601,-0.60989,-0.61575,-0.57985,-0.60842,-0.60696,-0.63333,-0.90879,0.25165,1.50000,-0.21648,-1.46630,-1.38864,-1.08388,-0.85018,-0.63773
-0.59524,-0.60842,-0.59670,-0.61282,-0.63919,-0.40549,-0.13956,-0.01648,-0.03260,-0.22601,-0.60989,-0.61575,-0.57985,-0.60842,-0.60696,-0.63333,-0.90879,0.25165,1.50000,-0.21648,-1.46630,-1.38864,-1.08388,-0.85018,-0.63773
-0.59524,-0.60842,-0.59670,-0.61282,-0.63919,-0.40549,-0.13956,-0.01648,-0.03260,-0.22601,-0.60989,-0.61575,-0.57985,-0.60842,-0.60696,-0.63333,-0.90879,0.25165,1.50000,-0.21648,-1.46630,-1.38864,-1.08388,-0.85018,-0.63773
-0.59524,-0.60842,-0.59670,-0.61282,-0.63919,-0.40549,-0.13956,-0.01648,-0.03260,-0.22601,-0.60989,-0.61575,-0.57985,-0.60842,-0.60696,-0.63333,-0.90879,0.25165,1.50000,-0.21648,-1.46630,-1.38864,-1.08388,-0.85018,-0.63773
-0.59524,-0.60842,-0.59670,-0.61282,-0.63919,-0.40549,-0.13956,-0.01648,-0.03260,-0.22601,-0.60989,-0.61575,-0.57985,-0.60842,-0.60696,-0.63333,-0.90879,0.25165,1.50000,-0.21648,-1.46630,-1.38864,-1.08388,-0.85018,-0.63773
-0.59524,-0.60842,-0.59670,-0.61282,-0.63919,-0.40549,-0.13956,-0.01648,-0.03260,-0.22601,-0.60989,-0.61575,-0.57985,-0.60842,-0.60696,-0.63333,-0.90879,0.25165,1.50000,-0.21648,-1.46630,-1.38864,-1.08388,-0.85018,-0.63773
-0.59524,-0.60842,-0.59670,-0.61282,-0.63919,-0.40549,-0.13956,-0.01648,-0.03260,-0.22601,-0.60989,-0.61575,-0.57985,-0.60842,-0.60696,-0.63333,-0.90879,0.25165,1.50000,-0.21648,-1.46630,-1.38864,-1.08388,-0.85018,-0.63773
-0.59524,-0.60842,-0.59670,-0.61282,-0.63919,-0.40549,-0.13956,-0.01648,-0.03260,-0.22601,-0.60989,-0.61575,-0.57985,-0.60842,-0.60696,-0.63333,-0.90879,0.25165,1.50000,-0.21648,-1.46630,-1.38864,-1.08388,-0.85018,-0.63773
-0.59524,-0.60842,-0.59670,-0.61282,-0.63919,-0.40549,-0.13956,-0.01648,-0.03260,-0.22601,-0.60989,-0.61575,-0.57985,-0.60842,-0.60696,-0.63333,-0.90879,0.25165,1.50000,-0.21648,-1.46630,-1.38864,-1.08388,-0.85018,-0.63773
-0.59524,-0.60842,-0.59670,-0.61282,-0.63919,-0.40549,-0.13956,-0.01648,-0.03260,-0.22601,-0.60989,-0.61575,-0.57985,-0.60842,-0.60696,-0.63333,-0.90879,0.25165,1.50000,-0.21648,-1.46630,-1.38864,-1.08388,-0.85018,-0.63773
-0.59524,-0.60842,-0.59670,-0.61282,-0.63919,-0.40549,-0.13956,-0.01648,-0.03260,-0.22601,-0.60989,-0.61575,-0.57985,-0.60842,-0.60696,-0.63333,-0.90879,0.25165,1.50000,-0.21648,-1.46630,-1.38864,-1.08388,-0.85018,-0.63773
-0.59524,-0.60842,-0.59670,-0.61282,-0.63919,-0.40549,-0.13956,-0.01648,-0.03260,-0.22601,-0.60989,-0.61575,-0.57985,-0.60842,-0.60696,-0.63333,-0.90879,0.25165,1.50000,-0.21648,-1.46630,-1.38864,-1.08388,-0.85018,-0.63773
-0.59524,-0.60842,-0.59670,-0.61282,-0.63919,-0.40549,-0.13956,-0.01648,-0.03260,-0.22601,-0.60989,-0.61575,-0.57985,-0.60842,-0.60696,-0.63333,-0.90879,0.25165,1.50000,-0.21648,-1.46630,-1.38864,-1.08388,-0.85018,-0.63773
-0.59524,-0.60842,-0.59670,-0.61282,-0.63919,-0.40549,-0.13956,-0.01648,-0.03260,-0.22601,-0.60989,-0.61575,-0.57985,-0.60842,-0.60696,-0.63333,-0.90879,0.25165,1.50000,-0.21648,-1.46630,-1.38864,-1.08388,-0.85018,-0.63773
-0.59524,-0.60842,-0.59670,-0.61282,-0.63919,-0.40549,-0.13956,-0.01648,-0.03260,-0.22601,-0.60989,-0.61575,-0.57985,-0.60842,-0.60696,-0.63333,-0.90879,0.25165,1.50000,-0.21648,-1.46630,-1.38864,-1.08388,-0.85018,-0.63773
-0.59524,-0.60842,-0.59670,-0.61282,-0.63919,-0.40549,-0.13956,-0.01648,-0.03260,-0.22601,-0.60989,-0.61575,-0.57985,-0.60842,-0.60696,-0.63333,-0.90879,0.25165,1.50000,-0.21648,-1.46630,-1.38864,-1.08388,-0.85018,-0.63773
-0.59084,-0.61282,-0.60989,-0.62161,-0.62747,-0.57912,-0.41575,-0.23773,-0.10440,-0.02967,0.04066,0.03626,-0.08168,-0.27436,-0.47802,-0.61429,-0.61575,-0.60403,-0.58571,-0.53956,-0.53077,-0.61795,-0.62747,-0.59304,-0.60256
-0.59084,-0.61282,-0.60989,-0.62161,-0.62747,-0.57912,-0.41575,-0.23773,-0.10440,-0.02967,0.04066,0.03626,-0.08168,-0.27436,-0.47802,-0.61429,-0.61575,-0.60403,-0.58571,-0.53956,-0.53077,-0.61795,-0.62747,-0.59304,-0.60256
-0.59084,-0.61282,-0.60989,-0.62161,-0.62747,-0.57912,-0.41575,-0.23773,-0.10440,-0.02967,0.04066,0.03626,-0.08168,-0.27436,-0.47802,-0.61429,-0.61575,-0.60403,-0.58571,-0.53956,-0.53077,-0.61795,-0.62747,-0.59304,-0.60256
-0.59084,-0.61282,-0.60989,-0.62161,-0.62747,-0.57912,-0.41575,-0.23773,-0.10440,-0.02967,0.04066,0.03626,-0.08168,-0.27436,-0.47802,-0.61429,-0.61575,-0.60403,-0.58571,-0.53956,-0.53077,-0.61795,-0.62747,-0.59304,-0.60256
-0.59084,-0.61282,-0.60989,-0.62161,-0.62747,-0.57912,-0.41575,-0.23773,-0.10440,-0.02967,0.04066,0.03626,-0.08168,-0.27436,-0.47802,-0.61429,-0.61575,-0.60403,-0.58571,-0.53956,-0.53077,-0.61795,-0.62747,-0.59304,-0.60256
-0.59084,-0.61282,-0.60989,-0.62161,-0.62747,-0.57912,-0.41575,-0.23773,-0.10440,-0.02967,0.04066,0.03626,-0.08168,-0.27436,-0.47802,-0.61429,-0.61575,-0.60403,-0.58571,-0.53956,-0.53077,-0.61795,-0.62747,-0.59304,-0.60256
-0.59084,-0.61282,-0.60989,-0.62161,-0.62747,-0.57912,-0.41575,-0.23773,-0.10440,-0.02967,0.04066,0.03626,-0.08168,-0.27436,-0.47802,-0.61429,-0.61575,-0.60403,-0.58571,-0.53956,-0.53077,-0.61795,-0.62747,-0.59304,-0.60256
-0.59084,-0.61282,-0.60989,-0.62161,-0.62747,-0.57912,-0.41575,-0.23773,-0.10440,-0.02967,0.04066,0.03626,-0.08168,-0.27436,-0.47802,-0.61429,-0.61575,-0.60403,-0.58571,-0.53956,-0.53077,-0.61795,-0.62747,-0.59304,-0.60256
-0.59084,-0.61282,-0.60989,-0.62161,-0.62747,-0.57912,-0.41575,-0.23773,-0.10440,-0.02967,0.04066,0.03626,-0.08168,-0.27436,-0.47802,-0.61429,-0.61575,-0.60403,-0.58571,-0.53956,-0.53077,-0.61795,-0.62747,-0.59304,-0.60256
-0.59084,-0.61282,-0.60989,-0.62161,-0.62747,-0.57912,-0.41575,-0.23773,-0.10440,-0.02967,0.04066,0.03626,-0.08168,-0.27436,-0.47802,-0.61429,-0.61575,-0.60403,-0.58571,-0.53956,-0.53077,-0.61795,-0.62747,-0.59304,-0.60256
-0.59084,-0.61282,-0.60989,-0.62161,-0.62747,-0.57912,-0.41575,-0.23773,-0.10440,-0.02967,0.04066,0.03626,-0.08168,-0.27436,-0.47802,-0.61429,-0.61575,-0.60403,-0.58571,-0.53956,-0.53077,-0.61795,-0.62747,-0.59304,-0.60256
-0.59084,-0.61282,-0.60989,-0.62161,-0.62747,-0.57912,-0.41575,-0.23773,-0.10440,-0.02967,0.04066,0.03626,-0.08168,-0.27436,-0.47802,-0.61429,-0.61575,-0.60403,-0.58571,-0.53956,-0.53077,-0.61795,-0.62747,-0.59304,-0.60256
-0.59084,-0.61282,-0.60989,-0.62161,-0.62747,-0.57912,-0.41575,-0.23773,-0.10440,-0.02967,0.04066,0.03626,-0.08168,-0.27436,-0.47802,-0.61429,-0.61575,-0.60403,-0.58571,-0.53956,-0.53077,-0.61795,-0.62747,-0.59304,-0.60256
-0.59084,-0.61282,-0.60989,-0.62161,-0.62747,-0.57912,-0.41575,-0.23773,-0.10440,-0.02967,0.04066,0.03626,-0.08168,-0.27436,-0.47802,-0.61429,-0.61575,-0.60403,-0.58571,-0.53956,-0.53077,-0.61795,-0.62747,-0.59304,-0.60256
-0.59084,-0.61282,-0.60989,-0.62161,-0.62747,-0.57912,-0.41575,-0.23773,-0.10440,-0.02967,0.04066,0.03626,-0.08168,-0.27436,-0.47802,-0.61429,-0.61575,-0.60403,-0.58571,-0.53956,-0.53077,-0.61795,-0.62747,-0.59304,-0.60256
-0.58938,-0.59524,-0.61502,-0.61575,-0.57912,-0.60110,-0.60989,-0.61282,-0.60623,-0.62747,-0.59084,-0.59670,-0.60989,-0.60989,-0.63919,-0.40476,-0.13370,-0.02821,-0.03407,-0.22454,-0.58278,-0.60403,-0.59084,-0.59670,-0.60256
-0.58938,-0.59524,-0.61502,-0.61575,-0.57912,-0.60110,-0.60989,-0.61282,-0.60623,-0.62747,-0.59084,-0.59670,-0.60989,-0.60989,-0.63919,-0.40476,-0.13370,-0.02821,-0.03407,-0.22454,-0.58278,-0.60403,-0.59084,-0.59670,-0.60256
-0.58938,-0.59524,-0.61502,-0.61575,-0.57912,-0.60110,-0.60989,-0.61282,-0.60623,-0.62747,-0.59084,-0.59670,-0.60989,-0.60989,-0.63919,-0.40476,-0.13370,-0.02821,-0.03407,-0.22454,-0.58278,-0.60403,-0.59084,-0.59670,-0.60256
-0.58938,-0.59524,-0.61502,-0.61575,-0.57912,-0.60110,-0.60989,-0.61282,-0.60623,-0.62747,-0.59084,-0.59670,-0.60989,-0.60989,-0.63919,-0.40476,-0.13370,-0.02821,-0.03407,-0.22454,-0.58278,-0.60403,-0.59084,-0.59670,-0.60256
-0.58938,-0.59524,-0.61502,-0.61575,-0.57912,-0.60110,-0.60989,-0.61282,-0.60623,-0.62747,-0.59084,-0.59670,-0.60989,-0.60989,-0.63919,-0.40476,-0.13370,-0.02821,-0.03407,-0.22454,-0.58278,-0.60403,-0.59084,-0.59670,-0.60256
-0.58938,-0.59524,-0.61502,-0.61575,-0.57912,-0.60110,-0.60989,-0.61282,-0.60623,-0.62747,-0.59084,-0.59670,-0.60989,-0.60989,-0.63919,-0.40476,-0.13370,-0.02821,-0.03407,-0.22454,-0.58278,-0.60403,-0.59084,-0.59670,-0.60256
-0.58938,-0.59524,-0.61502,-0.61575,-0.57912,-0.60110,-0.60989,-0.61282,-0.60623,-0.62747,-0.59084,-0.59670,-0.60989,-0.60989,-0.63919,-0.40476,-0.13370,-0.02821,-0.03407,-0.22454,-0.58278,-0.60403,-0.59084,-0.59670,-0.60256
-0.58938,-0.59524,-0.61502,-0.61575,-0.57912,-0.60110,-0.60989,-0.61282,-0.60623,-0.62747,-0.59084,-0.59670,-0.60989,-0.60989,-0.63919,-0.40476,-0.13370,-0.02821,-0.03407,-0.22454,-0.58278,-0.60403,-0.59084,-0.59670,-0.60256
-0.58938,-0.59524,-0.61502,-0.61575,-0.57912,-0.60110,-0.60989,-0.61282,-0.60623,-0.62747,-0.59084,-0.59670,-0.60989,-0.60989,-0.63919,-0.40476,-0.13370,-0.02821,-0.03407,-0.22454,-0.58278,-0.60403,-0.59084,-0.59670,-0.60256
-0.58938,-0.59524,-0.61502,-0.61575,-0.57912,-0.60110,-0.60989,-0.61282,-0.60623,-0.62747,-0.59084,-0.59670,-0.60989,-0.60989,-0.63919,-0.40476,-0.13370,-0.02821,-0.03407,-0.22454,-0.58278,-0.60403,-0.59084,-0.59670,-0.60256
-0.58938,-0.59524,-0.61502,-0.61575,-0.57912,-0.60110,-0.60989,-0.61282,-0.60623,-0.62747,-0.59084,-0.59670,-0.60989,-0.60989,-0.63919,-0.40476,-0.13370,-0.02821,-0.03407,-0.22454,-0.58278,-0.60403,-0.59084,-0.59670,-0.60256
-0.58938,-0.59524,-0.61502,-0.61575,-0.57912,-0.60110,-0.60989,-0.61282,-0.60623,-0.62747,-0.59084,-0.59670,-0.60989,-0.60989,-0.63919,-0.40476,-0.13370,-0.02821,-0.03407,-0.22454,-0.58278,-0.60403,-0.59084,-0.59670,-0.60256
-0.58938,-0.59524,-0.61502,-0.61575,-0.57912,-0.60110,-0.60989,-0.61282,-0.60623,-0.62747,-0.59084,-0.59670,-0.60989,-0.60989,-0.63919,-0.40476,-0.13370,-0.02821,-0.03407,-0.22454,-0.58278,-0.60403,-0.59084,-0.59670,-0.60256
-0.58938,-0.59524,-0.61502,-0.61575,-0.57912,-0.60110,-0.60989,-0.61282,-0.60623,-0.62747,-0.59084,-0.59670,-0.60989,-0.60989,-0.63919,-0.40476,-0.13370,-0.02821,-0.03407,-0.22454,-0.58278,-0.60403,-0.59084,-0.59670,-0.60256
-0.58938,-0.59524,-0.61502,-0.61575,-0.57912,-0.60110,-0.60989,-0.61282,-0.60623,-0.62747,-0.59084,-0.59670,-0.60989,-0.60989,-0.63919,-0.40476,-0.13370,-0.02821,-0.03407,-0.22454,-0.58278,-0.60403,-0.59084,-0.59670,-0.60256
-0.64212,-0.90293,0.23993,1.50000,-0.20403,-1.47363,-1.38278,-1.09194,-0.83846,-0.65678,-0.59744,-0.60696,-0.60989,-0.63333,-0.62747,-0.57912,-0.40403,-0.24359,-0.09121,0.00623,0.03993,0.04212,-0.06996,-0.27509,-0.48388
-0.64212,-0.90293,0.23993,1.50000,-0.20403,-1.47363,-1.38278,-1.09194,-0.83846,-0.65678,-0.59744,-0.60696,-0.60989,-0.63333,-0.62747,-0.57912,-0.40403,-0.24359,-0.09121,0.00623,0.03993,0.04212,-0.06996,-0.27509,-0.48388
-0.64212,-0.90293,0.23993,1.50000,-0.20403,-1.47363,-1.38278,-1.09194,-0.83846,-0.65678,-0.59744,-0.60696,-0.60989,-0.63333,-0.62747,-0.57912,-0.40403,-0.24359,-0.09121,0.00623,0.03993,0.04212,-0.06996,-0.27509,-0.48388
-0.64212,-0.90293,0.23993,1.50000,-0.20403,-1.47363,-1.38278,-1.09194,-0.83846,-0.65678,-0.59744,-0.60696,-0.60989,-0.63333,-0.62747,-0.57912,-0.40403,-0.24359,-0.09121,0.00623,0.03993,0.04212,-0.06996,-0.27509,-0.48388
-0.64212,-0.90293,0.23993,1.50000,-0.20403,-1.47363,-1.38278,-1.09194,-0.83846,-0.65678,-0.59744,-0.60696,-0.60989,-0.63333,-0.62747,-0.57912,-0.40403,-0.24359,-0.09121,0.00623,0.03993,0.04212,-0.06996,-0.27509,-0.48388
-0.64212,-0.90293,0.23993,1.50000,-0.20403,-1.47363,-1.38278,-1.09194,-0.83846,-0.65678,-0.59744,-0.60696,-0.60989,-0.63333,-0.62747,-0.57912,-0.40403,-0.24359,-0.09121,0.00623,0.03993,0.04212,-0.06996,-0.27509,-0.48388
-0.64212,-0.90293,0.23993,1.50000,-0.20403,-1.47363,-1.38278,-1.09194,-0.83846,-0.65678,-0.59744,-0.60696,-0.60989,-0.63333,-0.62747,-0.57912,-0.40403,-0.24359,-0.09121,0.00623,0.03993,0.04212,-0.06996,-0.27509,-0.48388
-0.64212,-0.90293,0.23993,1.50000,-0.20403,-1.47363,-1.38278,-1.09194,-0.83846,-0.65678,-0.59744,-0.60696,-0.60989,-0.63333,-0.62747,-0.57912,-0.40403,-0.24359,-0.09121,0.00623,0.03993,0.04212,-0.06996,-0.27509,-0.48388
-0.64212,-0.90293,0.23993,1.50000,-0.20403,-1.47363,-1.38278,-1.09194,-0.83846,-0.65678,-0.59744,-0.60696,-0.60989,-0.63333,-0.62747,-0.57912,-0.40403,-0.24359,-0.09121,0.00623,0.03993,0.04212,-0.06996,-0.27509,-0.48388
-0.64212,-0.90293,0.23993,1.50000,-0.20403,-1.47363,-1.38278,-1.09194,-0.83846,-0.65678,-0.59744,-0.60696,-0.60989,-0.63333,-0.62747,-0.57912,-0.40403,-0.24359,-0.09121,0.00623,0.03993,0.04212,-0.06996,-0.27509,-0.48388
-0.64212,-0.90293,0.23993,1.50000,-0.20403,-1.47363,-1.38278,-1.09194,-0.83846,-0.65678,-0.59744,-0.60696,-0.60989,-0.63333,-0.62747,-0.57912,-0.40403,-0.24359,-0.09121,0.00623,0.03993,0.04212,-0.06996,-0.27509,-0.48388
-0.64212,-0.90293,0.23993,1.50000,-0.20403,-1.47363,-1.38278,-1.09194,-0.83846,-0.65678,-0.59744,-0.60696,-0.60989,-0.63333,-0.62747,-0.57912,-0.40403,-0.24359,-0.09121,0.00623,0.03993,0.04212,-0.06996,-0.27509,-0.48388
-0.64212,-0.90293,0.23993,1.50000,-0.20403,-1.47363,-1.38278,-1.09194,-0.83846,-0.65678,-0.59744,-0.60696,-0.60989,-0.63333,-0.62747,-0.57912,-0.40403,-0.24359,-0.09121,0.00623,0.03993,0.04212,-0.06996,-0.27509,-0.48388
-0.64212,-0.90293,0.23993,1.50000,-0.20403,-1.47363,-1.38278,-1.09194,-0.83846,-0.65678,-0.59744,-0.60696,-0.60989,-0.63333,-0.62747,-0.57912,-0.40403,-0.24359,-0.09121,0.00623,0.03993,0.04212,-0.06996,-0.27509,-0.48388
-0.63919,-0.62747,-0.57912,-0.58571,-0.53297,-0.53663,-0.62747,-0.61575,-0.57912,-0.59084,-0.59524,-0.59670,-0.62747,-0.62747,-0.58132,-0.61282,-0.59670,-0.60696,-0.61722,-0.62747,-0.57399,-0.58938,-0.58938,-0.59963,-0.60330
-0.63919,-0.62747,-0.57912,-0.58571,-0.53297,-0.53663,-0.62747,-0.61575,-0.57912,-0.59084,-0.59524,-0.59670,-0.62747,-0.62747,-0.58132,-0.61282,-0.59670,-0.60696,-0.61722,-0.62747,-0.57399,-0.58938,-0.58938,-0.59963,-0.60330
-0.63919,-0.62747,-0.57912,-0.58571,-0.53297,-0.53663,-0.62747,-0.61575,-0.57912,-0.59084,-0.59524,-0.59670,-0.62747,-0.62747,-0.58132,-0.61282,-0.59670,-0.60696,-0.61722,-0.62747,-0.57399,-0.58938,-0.58938,-0.59963,-0.60330
-0.63919,-0.62747,-0.57912,-0.58571,-0.53297,-0.53663,-0.62747,-0.61575,-0.57912,-0.59084,-0.59524,-0.59670,-0.62747,-0.62747,-0.58132,-0.61282,-0.59670,-0.60696,-0.61722,-0.62747,-0.57399,-0.58938,-0.58938,-0.59963,-0.60330
-0.63919,-0.62747,-0.57912,-0.58571,-0.53297,-0.53663,-0.62747,-0.61575,-0.57912,-0.59084,-0.59524,-0.59670,-0.62747,-0.62747,-0.58132,-0.61282,-0.59670,-0.60696,-0.61722,-0.62747,-0.57399,-0.58938,-0.58938,-0.59963,-0.60330
-0.63919,-0.62747,-0.57912,-0.58571,-0.53297,-0.53663,-0.62747,-0.61575,-0.57912,-0.59084,-0.59524,-0.59670,-0.62747,-0.62747,-0.58132,-0.61282,-0.59670,-0.60696,-0.61722,-0.62747,-0.57399,-0.58938,-0.58938,-0.59963,-0.60330
-0.63919,-0.62747,-0.57912,-0.58571,-0.53297,-0.53663,-0.62747,-0.61575,-0.57912,-0.59084,-0.59524,-0.59670,-0.62747,-0.62747,-0.58132,-0.61282,-0.59670,-0.60696,-0.61722,-0.62747,-0.57399,-0.58938,-0.58938,-0.59963,-0.60330
-0.63919,-0.62747,-0.57912,-0.58571,-0.53297,-0.53663,-0.62747,-0.61575,-0.57912,-0.59084,-0.59524,-0.59670,-0.62747,-0.62747,-0.58132,-0.61282,-0.59670,-0.60696,-0.61722,-0.62747,-0.57399,-0.58938,-0.58938,-0.59963,-0.60330
-0.63919,-0.62747,-0.57912,-0.58571,-0.53297,-0.53663,-0.62747,-0.61575,-0.57912,-0.59084,-0.59524,-0.59670,-0.62747,-0.62747,-0.58132,-0.61282,-0.59670,-0.60696,-0.61722,-0.62747,-0.57399,-0.58938,-0.58938,-0.59963,-0.60330
-0.63919,-0.62747,-0.57912,-0.58571,-0.53297,-0.53663,-0.62747,-0.61575,-0.57912,-0.59084,-0.59524,-0.59670,-0.62747,-0.62747,-0.58132,-0.61282,-0.59670,-0.60696,-0.61722,-0.62747,-0.57399,-0.58938,-0.58938,-0.59963,-0.60330
-0.63919,-0.62747,-0.57912,-0.58571,-0.53297,-0.53663,-0.62747,-0.61575,-0.57912,-0.59084,-0.59524,-0.59670,-0.62747,-0.62747,-0.58132,-0.61282,-0.59670,-0.60696,-0.61722,-0.62747,-0.57399,-0.58938,-0.58938,-0.59963,-0.60330
-0.63919,-0.62747,-0.57912,-0.58571,-0.53297,-0.53663,-0.62747,-0.61575,-0.57912,-0.59084,-0.59524,-0.59670,-0.62747,-0.62747,-0.58132,-0.61282,-0.59670,-0.60696,-0.61722,-0.62747,-0.57399,-0.58938,-0.58938,-0.59963,-0.60330
-0.63919,-0.62747,-0.57912,-0.58571,-0.53297,-0.53663,-0.62747,-0.61575,-0.57912,-0.59084,-0.59524,-0.59670,-0.62747,-0.62747,-0.58132,-0.61282,-0.59670,-0.60696,-0.61722,-0.62747,-0.57399,-0.58938,-0.58938,-0.59963,-0.60330
-0.63919,-0.62747,-0.57912,-0.58571,-0.53297,-0.53663,-0.62747,-0.61575,-0.57912,-0.59084,-0.59524,-0.59670,-0.62747,-0.62747,-0.58132,-0.61282,-0.59670,-0.60696,-0.61722,-0.62747,-0.57399,-0.58938,-0.58938,-0.59963,-0.60330
-0.63919,-0.62747,-0.57912,-0.58571,-0.53297,-0.53663,-0.62747,-0.61575,-0.57912,-0.59084,-0.59524,-0.59670,-0.62747,-0.62747,-0.58132,-0.61282,-0.59670,-0.60696,-0.61722,-0.62747,-0.57399,-0.58938,-0.58938,-0.59963,-0.60330
-0.63919,-0.62747,-0.57912,-0.58571,-0.53297,-0.53663,-0.62747,-0.61575,-0.57912,-0.59084,-0.59524,-0.59670,-0.62747,-0.62747,-0.58132,-0.61282,-0.59670,-0.60696,-0.61722,-0.62747,-0.57399,-0.58938,-0.58938,-0.59963,-0.60330
-0.41648,-0.13370,-0.00476,-0.03407,-0.23480,-0.57985,-0.62821,-0.57912,-0.61429,-0.59158,-0.64212,-0.90952,0.21648,1.50000,-0.16960,-1.45897,-1.38132,-1.10879,-0.85092,-0.62601,-0.60842,-0.60256,-0.61136,-0.61648,-0.61575
-0.41648,-0.13370,-0.00476,-0.03407,-0.23480,-0.57985,-0.62821,-0.57912,-0.61429,-0.59158,-0.64212,-0.90952,0.21648,1.50000,-0.16960,-1.45897,-1.38132,-1.10879,-0.85092,-0.62601,-0.60842,-0.60256,-0.61136,-0.61648,-0.61575
-0.41648,-0.13370,-0.00476,-0.03407,-0.23480,-0.57985,-0.62821,-0.57912,-0.61429,-0.59158,-0.64212,-0.90952,0.21648,1.50000,-0.16960,-1.45897,-1.38132,-1.10879,-0.85092,-0.62601,-0.60842,-0.60256,-0.61136,-0.61648,-0.61575
-0.41648,-0.13370,-0.00476,-0.03407,-0.23480,-0.57985,-0.62821,-0.57912,-0.61429,-0.59158,-0.64212,-0.90952,0.21648,1.50000,-0.16960,-1.45897,-1.38132,-1.10879,-0.85092,-0.62601,-0.60842,-0.60256,-0.61136,-0.61648,-0.61575
-0.41648,-0.13370,-0.00476,-0.03407,-0.23480,-0.57985,-0.62821,-0.57912,-0.61429,-0.59158,-0.64212,-0.90952,0.21648,1.50000,-0.16960,-1.45897,-1.38132,-1.10879,-0.85092,-0.62601,-0.60842,-0.60256,-0.61136,-0.61648,-0.61575
-0.41648,-0.13370,-0.00476,-0.03407,-0.23480,-0.57985,-0.62821,-0.57912,-0.61429,-0.59158,-0.64212,-0.90952,0.21648,1.50000,-0.16960,-1.45897,-1.38132,-1.10879,-0.85092,-0.62601,-0.60842,-0.60256,-0.61136,-0.61648,-0.61575
-0.41648,-0.13370,-0.00476,-0.03407,-0.23480,-0.57985,-0.62821,-0.57912,-0.61429,-0.59158,-0.64212,-0.90952,0.21648,1.50000,-0.16960,-1.45897,-1.38132,-1.10879,-0.85092,-0.62601,-0.60842,-0.60256,-0.61136,-0.61648,-0.61575
-0.41648,-0.13370,-0.00476,-0.03407,-0.23480,-0.57985,-0.62821,-0.57912,-0.61429,-0.59158,-0.64212,-0.90952,0.21648,1.50000,-0.16960,-1.45897,-1.38132,-1.10879,-0.85092,-0.62601,-0.60842,-0.60256,-0.61136,-0.61648,-0.61575
-0.41648,-0.13370,-0.00476,-0.03407,-0.23480,-0.57985,-0.62821,-0.57912,-0.61429,-0.59158,-0.64212,-0.90952,0.21648,1.50000,-0.16960,-1.45897,-1.38132,-1.10879,-0.85092,-0.62601,-0.60842,-0.60256,-0.61136,-0.61648,-0.61575
-0.41648,-0.13370,-0.00476,-0.03407,-0.23480,-0.57985,-0.62821,-0.57912,-0.61429,-0.59158,-0.64212,-0.90952,0.21648,1.50000,-0.16960,-1.45897,-1.38132,-1.10879,-0.85092,-0.62601,-0.60842,-0.60256,-0.61136,-0.61648,-0.61575
-0.41648,-0.13370,-0.00476,-0.03407,-0.23480,-0.57985,-0.62821,-0.57912,-0.61429,-0.59158,-0.64212,-0.90952,0.21648,1.50000,-0.16960,-1.45897,-1.38132,-1.10879,-0.85092,-0.62601,-0.60842,-0.60256,-0.61136,-0.61648,-0.61575
-0.41648,-0.13370,-0.00476,-0.03407,-0.23480,-0.57985,-0.62821,-0.57912,-0.61429,-0.59158,-0.64212,-0.90952,0.21648,1.50000,-0.16960,-1.45897,-1.38132,-1.10879,-0.85092,-0.62601,-0.60842,-0.60256,-0.61136,-0.61648,-0.61575
-0.41648,-0.13370,-0.00476,-0.03407,-0.23480,-0.57985,-0.62821,-0.57912,-0.61429,-0.59158,-0.64212,-0.90952,0.21648,1.50000,-0.16960,-1.45897,-1.38132,-1.10879,-0.85092,-0.62601,-0.60842,-0.60256,-0.61136,-0.61648,-0.61575
-0.41648,-0.13370,-0.00476,-0.03407,-0.23480,-0.57985,-0.62821,-0.57912,-0.61429,-0.59158,-0.64212,-0.90952,0.21648,1.50000,-0.16960,-1.45897,-1.38132,-1.10879,-0.85092,-0.62601,-0.60842,-0.60256,-0.61136,-0.61648,-0.61575
-0.41648,-0.13370,-0.00476,-0.03407,-0.23480,-0.57985,-0.62821,-0.57912,-0.61429,-0.59158,-0.64212,-0.90952,0.21648,1.50000,-0.16960,-1.45897,-1.38132,-1.10879,-0.85092,-0.62601,-0.60842,-0.60256,-0.61136,-0.61648,-0.61575
-0.60476,-0.43333,-0.24945,-0.09267,-0.02967,0.04066,0.04212,-0.09853,-0.25678,-0.47509,-0.60549,-0.61575,-0.59158,-0.58498,-0.53883,-0.52637,-0.61429,-0.61648,-0.59084,-0.60842,-0.60256,-0.60989,-0.61648,-0.62747,-0.59158
-0.60476,-0.43333,-0.24945,-0.09267,-0.02967,0.04066,0.04212,-0.09853,-0.25678,-0.47509,-0.60549,-0.61575,-0.59158,-0.58498,-0.53883,-0.52637,-0.61429,-0.61648,-0.59084,-0.60842,-0.60256,-0.60989,-0.61648,-0.62747,-0.59158
-0.60476,-0.43333,-0.24945,-0.09267,-0.02967,0.04066,0.04212,-0.09853,-0.25678,-0.47509,-0.60549,-0.61575,-0.59158,-0.58498,-0.53883,-0.52637,-0.61429,-0.61648,-0.59084,-0.60842,-0.60256,-0.60989,-0.61648,-0.62747,-0.59158
-0.60476,-0.43333,-0.24945,-0.09267,-0.02967,0.04066,0.04212,-0.09853,-0.25678,-0.47509,-0.60549,-0.61575,-0.59158,-0.58498,-0.53883,-0.52637,-0.61429,-0.61648,-0.59084,-0.60842,-0.60256,-0.60989,-0.61648,-0.62747,-0.59158
-0.60476,-0.43333,-0.24945,-0.09267,-0.02967,0.04066,0.04212,-0.09853,-0.25678,-0.47509,-0.60549,-0.61575,-0.59158,-0.58498,-0.53883,-0.52637,-0.61429,-0.61648,-0.59084,-0.60842,-0.60256,-0.60989,-0.61648,-0.62747,-0.59158
-0.60476,-0.43333,-0.24945,-0.09267,-0.02967,0.04066,0.04212,-0.09853,-0.25678,-0.47509,-0.60549,-0.61575,-0.59158,-0.58498,-0.53883,-0.52637,-0.61429,-0.61648,-0.59084,-0.60842,-0.60256,-0.60989,-0.61648,-0.62747,-0.59158
-0.60476,-0.43333,-0.24945,-0.09267,-0.02967,0.04066,0.04212,-0.09853,-0.25678,-0.47509,-0.60549,-0.61575,-0.59158,-0.58498,-0.53883,-0.52637,-0.61429,-0.61648,-0.59084,-0.60842,-0.60256,-0.60989,-0.61648,-0.62747,-0.59158
-0.60476,-0.43333,-0.24945,-0.09267,-0.02967,0.04066,0.04212,-0.09853,-0.25678,-0.47509,-0.60549,-0.61575,-0.59158,-0.58498,-0.53883,-0.52637,-0.61429,-0.61648,-0.59084,-0.60842,-0.60256,-0.60989,-0.61648,-0.62747,-0.59158
-0.60476,-0.43333,-0.24945,-0.09267,-0.02967,0.04066,0.04212,-0.09853,-0.25678,-0.47509,-0.60549,-0.61575,-0.59158,-0.58498,-0.53883,-0.52637,-0.61429,-0.61648,-0.59084,-0.60842,-0.60256,-0.60989,-0.61648,-0.62747,-0.59158
-0.60476,-0.43333,-0.24945,-0.09267,-0.02967,0.04066,0.04212,-0.09853,-0.25678,-0.47509,-0.60549,-0.61575,-0.59158,-0.58498,-0.53883,-0.52637,-0.61429,-0.61648,-0.59084,-0.60842,-0.60256,-0.60989,-0.61648,-0.62747,-0.59158
-0.60476,-0.43333,-0.24945,-0.09267,-0.02967,0.04066,0.04212,-0.09853,-0.25678,-0.47509,-0.60549,-0.61575,-0.59158,-0.58498,-0.53883,-0.52637,-0.61429,-0.61648,-0.59084,-0.60842,-0.60256,-0.60989,-0.61648,-0.62747,-0.59158
-0.60476,-0.43333,-0.24945,-0.09267,-0.02967,0.04066,0.04212,-0.09853,-0.25678,-0.47509,-0.60549,-0.61575,-0.59158,-0.58498,-0.53883,-0.52637,-0.61429,-0.61648,-0.59084,-0.60842,-0.60256,-0.60989,-0.61648,-0.62747,-0.59158
-0.60476,-0.43333,-0.24945,-0.09267,-0.02967,0.04066,0.04212,-0.09853,-0.25678,-0.47509,-0.60549,-0.61575,-0.59158,-0.58498,-0.53883,-0.52637,-0.61429,-0.61648,-0.59084,-0.60842,-0.60256,-0.60989,-0.61648,-0.62747,-0.59158
-0.60476,-0.43333,-0.24945,-0.09267,-0.02967,0.04066,0.04212,-0.09853,-0.25678,-0.47509,-0.60549,-0.61575,-0.59158,-0.58498,-0.53883,-0.52637,-0.61429,-0.61648,-0.59084,-0.60842,-0.60256,-0.60989,-0.61648,-0.62747,-0.59158
-0.60476,-0.43333,-0.24945,-0.09267,-0.02967,0.04066,0.04212,-0.09853,-0.25678,-0.47509,-0.60549,-0.61575,-0.59158,-0.58498,-0.53883,-0.52637,-0.61429,-0.61648,-0.59084,-0.60842,-0.60256,-0.60989,-0.61648,-0.62747,-0.59158
-0.61282,-0.60989,-0.59524,-0.63919,-0.61575,-0.60989,-0.60842,-0.59670,-0.60989,-0.62747,-0.42234,-0.13956,-0.01648,-0.02821,-0.21575,-0.58864,-0.62747,-0.57326,-0.57912,-0.60256,-0.63480,-0.90440,0.21648,1.50000,-0.17473
-0.61282,-0.60989,-0.59524,-0.63919,-0.61575,-0.60989,-0.60842,-0.59670,-0.60989,-0.62747,-0.42234,-0.13956,-0.01648,-0.02821,-0.21575,-0.58864,-0.62747,-0.57326,-0.57912,-0.60256,-0.63480,-0.90440,0.21648,1.50000,-0.17473
-0.61282,-0.60989,-0.59524,-0.63919,-0.61575,-0.60989,-0.60842,-0.59670,-0.60989,-0.62747,-0.42234,-0.13956,-0.01648,-0.02821,-0.21575,-0.58864,-0.62747,-0.57326,-0.57912,-0.60256,-0.63480,-0.90440,0.21648,1.50000,-0.17473
-0.61282,-0.60989,-0.59524,-0.63919,-0.61575,-0.60989,-0.60842,-0.59670,-0.60989,-0.62747,-0.42234,-0.13956,-0.01648,-0.02821,-0.21575,-0.58864,-0.62747,-0.57326,-0.57912,-0.60256,-0.63480,-0.90440,0.21648,1.50000,-0.17473
-0.61282,-0.60989,-0.59524,-0.63919,-0.61575,-0.60989,-0.60842,-0.59670,-0.60989,-0.62747,-0.42234,-0.13956,-0.01648,-0.02821,-0.21575,-0.58864,-0.62747,-0.57326,-0.57912,-0.60256,-0.63480,-0.90440,0.21648,1.50000,-0.17473
-0.61282,-0.60989,-0.59524,-0.63919,-0.61575,-0.60989,-0.60842,-0.59670,-0.60989,-0.62747,-0.42234,-0.13956,-0.01648,-0.02821,-0.21575,-0.58864,-0.62747,-0.57326,-0.57912,-0.60256,-0.63480,-0.90440,0.21648,1.50000,-0.17473
-0.61282,-0.60989,-0.59524,-0.63919,-0.61575,-0.60989,-0.60842,-0.59670,-0.60989,-0.62747,-0.42234,-0.13956,-0.01648,-0.02821,-0.21575,-0.58864,-0.62747,-0.57326,-0.57912,-0.60256,-0.63480,-0.90440,0.21648,1.50000,-0.17473
-0.61282,-0.60989,-0.59524,-0.63919,-0.61575,-0.60989,-0.60842,-0.59670,-0.60989,-0.62747,-0.42234,-0.13956,-0.01648,-0.02821,-0.21575,-0.58864,-0.62747,-0.57326,-0.57912,-0.60256,-0.63480,-0.90440,0.21648,1.50000,-0.17473
-0.61282,-0.60989,-0.59524,-0.63919,-0.61575,-0.60989,-0.60842,-0.59670,-0.60989,-0.62747,-0.42234,-0.13956,-0.01648,-0.02821,-0.21575,-0.58864,-0.62747,-0.57326,-0.57912,-0.60256,-0.63480,-0.90440,0.21648,1.50000,-0.17473
-0.61282,-0.60989,-0.59524,-0.63919,-0.61575,-0.60989,-0.60842,-0.59670,-0.60989,-0.62747,-0.42234,-0.13956,-0.01648,-0.02821,-0.21575,-0.58864,-0.62747,-0.57326,-0.57912,-0.60256,-0.63480,-0.90440,0.21648,1.50000,-0.17473
-0.61282,-0.60989,-0.59524,-0.63919,-0.61575,-0.60989,-0.60842,-0.59670,-0.60989,-0.62747,-0.42234,-0.13956,-0.01648,-0.02821,-0.21575,-0.58864,-0.62747,-0.57326,-0.57912,-0.60256,-0.63480,-0.90440,0.21648,1.50000,-0.17473
-0.61282,-0.60989,-0.59524,-0.63919,-0.61575,-0.60989,-0.60842,-0.59670,-0.60989,-0.62747,-0.42234,-0.13956,-0.01648,-0.02821,-0.21575,-0.58864,-0.62747,-0.57326,-0.57912,-0.60256,-0.63480,-0.90440,0.21648,1.50000,-0.17473
-0.61282,-0.60989,-0.59524,-0.63919,-0.61575,-0.60989,-0.60842,-0.59670,-0.60989,-0.62747,-0.42234,-0.13956,-0.01648,-0.02821,-0.21575,-0.58864,-0.62747,-0.57326,-0.57912,-0.60256,-0.63480,-0.90440,0.21648,1.50000,-0.17473
-0.61282,-0.60989,-0.59524,-0.63919,-0.61575,-0.60989,-0.60842,-0.59670,-0.60989,-0.62747,-0.42234,-0.13956,-0.01648,-0.02821,-0.21575,-0.58864,-0.62747,-0.57326,-0.57912,-0.60256,-0.63480,-0.90440,0.21648,1.50000,-0.17473
-1.45311,-1.40476,-1.10806,-0.85604,-0.62601,-0.60916,-0.61429,-0.59670,-0.60037,-0.62821,-0.57912,-0.42088,-0.23773,-0.10440,-0.01795,0.04066,0.02894,-0.09267,-0.27436,-0.47216,-0.62747,-0.62747,-0.57912,-0.57912,-0.53663
-1.45311,-1.40476,-1.10806,-0.85604,-0.62601,-0.60916,-0.61429,-0.59670,-0.60037,-0.62821,-0.57912,-0.42088,-0.23773,-0.10440,-0.01795,0.04066,0.02894,-0.09267,-0.27436,-0.47216,-0.62747,-0.62747,-0.57912,-0.57912,-0.53663
-1.45311,-1.40476,-1.10806,-0.85604,-0.62601,-0.60916,-0.61429,-0.59670,-0.60037,-0.62821,-0.57912,-0.42088,-0.23773,-0.10440,-0.01795,0.04066,0.02894,-0.09267,-0.27436,-0.47216,-0.62747,-0.62747,-0.57912,-0.57912,-0.53663
-1.45311,-1.40476,-1.10806,-0.85604,-0.62601,-0.60916,-0.61429,-0.59670,-0.60037,-0.62821,-0.57912,-0.42088,-0.23773,-0.10440,-0.01795,0.04066,0.02894,-0.09267,-0.27436,-0.47216,-0.62747,-0.62747,-0.57912,-0.57912,-0.53663
-1.45311,-1.40476,-1.10806,-0.85604,-0.62601,-0.60916,-0.61429,-0.59670,-0.60037,-0.62821,-0.57912,-0.42088,-0.23773,-0.10440,-0.01795,0.04066,0.02894,-0.09267,-0.27436,-0.47216,-0.62747,-0.62747,-0.57912,-0.57912,-0.53663
-1.45311,-1.40476,-1.10806,-0.85604,-0.62601,-0.60916,-0.61429,-0.59670,-0.60037,-0.62821,-0.57912,-0.42088,-0.23773,-0.10440,-0.01795,0.04066,0.02894,-0.09267,-0.27436,-0.47216,-0.62747,-0.62747,-0.57912,-0.57912,-0.53663
-1.45311,-1.40476,-1.10806,-0.85604,-0.62601,-0.60916,-0.61429,-0.59670,-0.60037,-0.62821,-0.57912,-0.42088,-0.23773,-0.10440,-0.01795,0.04066,0.02894,-0.09267,-0.27436,-0.47216,-0.62747,-0.62747,-0.57912,-0.57912,-0.53663
-1.45311,-1.40476,-1.10806,-0.85604,-0.62601,-0.60916,-0.61429,-0.59670,-0.60037,-0.62821,-0.57912,-0.42088,-0.23773,-0.10440,-0.01795,0.04066,0.02894,-0.09267,-0.27436,-0.47216,-0.62747,-0.62747,-0.57912,-0.57912,-0.53663
-1.45311,-1.40476,-1.10806,-0.85604,-0.62601,-0.60916,-0.61429,-0.59670,-0.60037,-0.62821,-0.57912,-0.42088,-0.23773,-0.10440,-0.01795,0.04066,0.02894,-0.09267,-0.27436,-0.47216,-0.62747,-0.62747,-0.57912,-0.57912,-0.53663
-1.45311,-1.40476,-1.10806,-0.85604,-0.62601,-0.60916,-0.61429,-0.59670,-0.60037,-0.62821,-0.57912,-0.42088,-0.23773,-0.10440,-0.01795,0.04066,0.02894,-0.09267,-0.27436,-0.47216,-0.62747,-0.62747,-0.57912,-0.57912,-0.53663
-1.45311,-1.40476,-1.10806,-0.85604,-0.62601,-0.60916,-0.61429,-0.59670,-0.60037,-0.62821,-0.57912,-0.42088,-0.23773,-0.10440,-0.01795,0.04066,0.02894,-0.09267,-0.27436,-0.47216,-0.62747,-0.62747,-0.57912,-0.57912,-0.53663
-1.45311,-1.40476,-1.10806,-0.85604,-0.62601,-0.60916,-0.61429,-0.59670,-0.60037,-0.62821,-0.57912,-0.42088,-0.23773,-0.10440,-0.01795,0.04066,0.02894,-0.09267,-0.27436,-0.47216,-0.62747,-0.62747,-0.57912,-0.57912,-0.53663
-1.45311,-1.40476,-1.10806,-0.85604,-0.62601,-0.60916,-0.61429,-0.59670,-0.60037,-0.62821,-0.57912,-0.42088,-0.23773,-0.10440,-0.01795,0.04066,0.02894,-0.09267,-0.27436,-0.47216,-0.62747,-0.62747,-0.57912,-0.57912,-0.53663
-1.45311,-1.40476,-1.10806,-0.85604,-0.62601,-0.60916,-0.61429,-0.59670,-0.60037,-0.62821,-0.57912,-0.42088,-0.23773,-0.10440,-0.01795,0.04066,0.02894,-0.09267,-0.27436,-0.47216,-0.62747,-0.62747,-0.57912,-0.57912,-0.53663
-1.45311,-1.40476,-1.10806,-0.85604,-0.62601,-0.60916,-0.61429,-0.59670,-0.60037,-0.62821,-0.57912,-0.42088,-0.23773,-0.10440,-0.01795,0.04066,0.02894,-0.09267,-0.27436,-0.47216,-0.62747,-0.62747,-0.57912,-0.57912,-0.53663
-1.45311,-1.40476,-1.10806,-0.85604,-0.62601,-0.60916,-0.61429,-0.59670,-0.60037,-0.62821,-0.57912,-0.42088,-0.23773,-0.10440,-0.01795,0.04066,0.02894,-0.09267,-0.27436,-0.47216,-0.62747,-0.62747,-0.57912,-0.57912,-0.53663
-0.53223,-0.60623,-0.62161,-0.59524,-0.61429,-0.61429,-0.59084,-0.61795,-0.60476,-0.59670,-0.59524,-0.60696,-0.59670,-0.61722,-0.60989,-0.58571,-0.61429,-0.60989,-0.60110,-0.62747,-0.40549,-0.13443,-0.02308,-0.03407,-0.23480
-0.53223,-0.60623,-0.62161,-0.59524,-0.61429,-0.61429,-0.59084,-0.61795,-0.60476,-0.59670,-0.59524,-0.60696,-0.59670,-0.61722,-0.60989,-0.58571,-0.61429,-0.60989,-0.60110,-0.62747,-0.40549,-0.13443,-0.02308,-0.03407,-0.23480
-0.53223,-0.60623,-0.62161,-0.59524,-0.61429,-0.61429,-0.59084,-0.61795,-0.60476,-0.59670,-0.59524,-0.60696,-0.59670,-0.61722,-0.60989,-0.58571,-0.61429,-0.60989,-0.60110,-0.62747,-0.40549,-0.13443,-0.02308,-0.03407,-0.23480
-0.53223,-0.60623,-0.62161,-0.59524,-0.61429,-0.61429,-0.59084,-0.61795,-0.60476,-0.59670,-0.59524,-0.60696,-0.59670,-0.61722,-0.60989,-0.58571,-0.61429,-0.60989,-0.60110,-0.62747,-0.40549,-0.13443,-0.02308,-0.03407,-0.23480
-0.53223,-0.60623,-0.62161,-0.59524,-0.61429,-0.61429,-0.59084,-0.61795,-0.60476,-0.59670,-0.59524,-0.60696,-0.59670,-0.61722,-0.60989,-0.58571,-0.61429,-0.60989,-0.60110,-0.62747,-0.40549,-0.13443,-0.02308,-0.03407,-0.23480
-0.53223,-0.60623,-0.62161,-0.59524,-0.61429,-0.61429,-0.59084,-0.61795,-0.60476,-0.59670,-0.59524,-0.60696,-0.59670,-0.61722,-0.60989,-0.58571,-0.61429,-0.60989,-0.60110,-0.62747,-0.40549,-0.13443,-0.02308,-0.03407,-0.23480
-0.53223,-0.60623,-0.62161,-0.59524,-0.61429,-0.61429,-0.59084,-0.61795,-0.60476,-0.59670,-0.59524,-0.60696,-0.59670,-0.61722,-0.60989,-0.58571,-0.61429,-0.60989,-0.60110,-0.62747,-0.40549,-0.13443,-0.02308,-0.03407,-0.23480
-0.53223,-0.60623,-0.62161,-0.59524,-0.61429,-0.61429,-0.59084,-0.61795,-0.60476,-0.59670,-0.59524,-0.60696,-0.59670,-0.61722,-0.60989,-0.58571,-0.61429,-0.60989,-0.60110,-0.62747,-0.40549,-0.13443,-0.02308,-0.03407,-0.23480
-0.53223,-0.60623,-0.62161,-0.59524,-0.61429,-0.61429,-0.59084,-0.61795,-0.60476,-0.59670,-0.59524,-0.60696,-0.59670,-0.61722,-0.60989,-0.58571,-0.61429,-0.60989,-0.60110,-0.62747,-0.40549,-0.13443,-0.02308,-0.03407,-0.23480
-0.53223,-0.60623,-0.62161,-0.59524,-0.61429,-0.61429,-0.59084,-0.61795,-0.60476,-0.59670,-0.59524,-0.60696,-0.59670,-0.61722,-0.60989,-0.58571,-0.61429,-0.60989,-0.60110,-0.62747,-0.40549,-0.13443,-0.02308,-0.03407,-0.23480
-0.53223,-0.60623,-0.62161,-0.59524,-0.61429,-0.61429,-0.59084,-0.61795,-0.60476,-0.59670,-0.59524,-0.60696,-0.59670,-0.61722,-0.60989,-0.58571,-0.61429,-0.60989,-0.60110,-0.62747,-0.40549,-0.13443,-0.02308,-0.03407,-0.23480
-0.53223,-0.60623,-0.62161,-0.59524,-0.61429,-0.61429,-0.59084,-0.61795,-0.60476,-0.59670,-0.59524,-0.60696,-0.59670,-0.61722,-0.60989,-0.58571,-0.61429,-0.60989,-0.60110,-0.62747,-0.40549,-0.13443,-0.02308,-0.03407,-0.23480
-0.53223,-0.60623,-0.62161,-0.59524,-0.61429,-0.61429,-0.59084,-0.61795,-0.60476,-0.59670,-0.59524,-0.60696,-0.59670,-0.61722,-0.60989,-0.58571,-0.61429,-0.60989,-0.60110,-0.62747,-0.40549,-0.13443,-0.02308,-0.03407,-0.23480
-0.53223,-0.60623,-0.62161,-0.59524,-0.61429,-0.61429,-0.59084,-0.61795,-0.60476,-0.59670,-0.59524,-0.60696,-0.59670,-0.61722,-0.60989,-0.58571,-0.61429,-0.60989,-0.60110,-0.62747,-0.40549,-0.13443,-0.02308,-0.03407,-0.23480
-0.53223,-0.60623,-0.62161,-0.59524,-0.61429,-0.61429,-0.59084,-0.61795,-0.60476,-0.59670,-0.59524,-0.60696,-0.59670,-0.61722,-0.60989,-0.58571,-0.61429,-0.60989,-0.60110,-0.62747,-0.40549,-0.13443,-0.02308,-0.03407,-0.23480
-0.59231,-0.61575,-0.59084,-0.58571,-0.58938,-0.63773,-0.93223,0.20476,1.50000,-0.16300,-1.45531,-1.38425,-1.10806,-0.86190,-0.63919,-0.60842,-0.59670,-0.60110,-0.60037,-0.62747,-0.59158,-0.41502,-0.24505,-0.10879,0.00037
-0.59231,-0.61575,-0.59084,-0.58571,-0.58938,-0.63773,-0.93223,0.20476,1.50000,-0.16300,-1.45531,-1.38425,-1.10806,-0.86190,-0.63919,-0.60842,-0.59670,-0.60110,-0.60037,-0.62747,-0.59158,-0.41502,-0.24505,-0.10879,0.00037
-0.59231,-0.61575,-0.59084,-0.58571,-0.58938,-0.63773,-0.93223,0.20476,1.50000,-0.16300,-1.45531,-1.38425,-1.10806,-0.86190,-0.63919,-0.60842,-0.59670,-0.60110,-0.60037,-0.62747,-0.59158,-0.41502,-0.24505,-0.10879,0.00037
-0.59231,-0.61575,-0.59084,-0.58571,-0.58938,-0.63773,-0.93223,0.20476,1.50000,-0.16300,-1.45531,-1.38425,-1.10806,-0.86190,-0.63919,-0.60842,-0.59670,-0.60110,-0.60037,-0.62747,-0.59158,-0.41502,-0.24505,-0.10879,0.00037
-0.59231,-0.61575,-0.59084,-0.58571,-0.58938,-0.63773,-0.93223,0.20476,1.50000,-0.16300,-1.45531,-1.38425,-1.10806,-0.86190,-0.63919,-0.60842,-0.59670,-0.60110,-0.60037,-0.62747,-0.59158,-0.41502,-0.24505,-0.10879,0.00037
-0.59231,-0.61575,-0.59084,-0.58571,-0.58938,-0.63773,-0.93223,0.20476,1.50000,-0.16300,-1.45531,-1.38425,-1.10806,-0.86190,-0.63919,-0.60842,-0.59670,-0.60110,-0.60037,-0.62747,-0.59158,-0.41502,-0.24505,-0.10879,0.00037
-0.59231,-0.61575,-0.59084,-0.58571,-0.58938,-0.63773,-0.93223,0.20476,1.50000,-0.16300,-1.45531,-1.38425,-1.10806,-0.86190,-0.63919,-0.60842,-0.59670,-0.60110,-0.60037,-0.62747,-0.59158,-0.41502,-0.24505,-0.10879,0.00037
-0.59231,-0.61575,-0.59084,-0.58571,-0.58938,-0.63773,-0.93223,0.20476,1.50000,-0.16300,-1.45531,-1.38425,-1.10806,-0.86190,-0.63919,-0.60842,-0.59670,-0.60110,-0.60037,-0.62747,-0.59158,-0.41502,-0.24505,-0.10879,0.00037
-0.59231,-0.61575,-0.59084,-0.58571,-0.58938,-0.63773,-0.93223,0.20476,1.50000,-0.16300,-1.45531,-1.38425,-1.10806,-0.86190,-0.63919,-0.60842,-0.59670,-0.60110,-0.60037,-0.62747,-0.59158,-0.41502,-0.24505,-0.10879,0.00037
-0.59231,-0.61575,-0.59084,-0.58571,-0.58938,-0.63773,-0.93223,0.20476,1.50000,-0.16300,-1.45531,-1.38425,-1.10806,-0.86190,-0.63919,-0.60842,-0.59670,-0.60110,-0.60037,-0.62747,-0.59158,-0.41502,-0.24505,-0.10879,0.00037
-0.59231,-0.61575,-0.59084,-0.58571,-0.58938,-0.63773,-0.93223,0.20476,1.50000,-0.16300,-1.45531,-1.38425,-1.10806,-0.86190,-0.63919,-0.60842,-0.59670,-0.60110,-0.60037,-0.62747,-0.59158,-0.41502,-0.24505,-0.10879,0.00037
-0.59231,-0.61575,-0.59084,-0.58571,-0.58938,-0.63773,-0.93223,0.20476,1.50000,-0.16300,-1.45531,-1.38425,-1.10806,-0.86190,-0.63919,-0.60842,-0.59670,-0.60110,-0.60037,-0.62747,-0.59158,-0.41502,-0.24505,-0.10879,0.00037
-0.59231,-0.61575,-0.59084,-0.58571,-0.58938,-0.63773,-0.93223,0.20476,1.50000,-0.16300,-1.45531,-1.38425,-1.10806,-0.86190,-0.63919,-0.60842,-0.59670,-0.60110,-0.60037,-0.62747,-0.59158,-0.41502,-0.24505,-0.10879,0.00037
-0.59231,-0.61575,-0.59084,-0.58571,-0.58938,-0.63773,-0.93223,0.20476,1.50000,-0.16300,-1.45531,-1.38425,-1.10806,-0.86190,-0.63919,-0.60842,-0.59670,-0.60110,-0.60037,-0.62747,-0.59158,-0.41502,-0.24505,-0.10879,0.00037
-0.59231,-0.61575,-0.59084,-0.58571,-0.58938,-0.63773,-0.93223,0.20476,1.50000,-0.16300,-1.45531,-1.38425,-1.10806,-0.86190,-0.63919,-0.60842,-0.59670,-0.60110,-0.60037,-0.62747,-0.59158,-0.41502,-0.24505,-0.10879,0.00037
0.02894,0.04139,-0.09267,-0.25678,-0.46923,-0.61648,-0.61575,-0.59084,-0.57766,-0.53663,-0.53956,-0.62161,-0.62747,-0.57326,-0.60256,-0.60696,-0.61429,-0.61502,-0.62747,-0.57766,-0.60110,-0.60916,-0.59524,-0.62747,-0.62747
0.02894,0.04139,-0.09267,-0.25678,-0.46923,-0.61648,-0.61575,-0.59084,-0.57766,-0.53663,-0.53956,-0.62161,-0.62747,-0.57326,-0.60256,-0.60696,-0.61429,-0.61502,-0.62747,-0.57766,-0.60110,-0.60916,-0.59524,-0.62747,-0.62747
0.02894,0.04139,-0.09267,-0.25678,-0.46923,-0.61648,-0.61575,-0.59084,-0.57766,-0.53663,-0.53956,-0.62161,-0.62747,-0.57326,-0.60256,-0.60696,-0.61429,-0.61502,-0.62747,-0.57766,-0.60110,-0.60916,-0.59524,-0.62747,-0.62747
0.02894,0.04139,-0.09267,-0.25678,-0.46923,-0.61648,-0.61575,-0.59084,-0.57766,-0.53663,-0.53956,-0.62161,-0.62747,-0.57326,-0.60256,-0.60696,-0.61429,-0.61502,-0.62747,-0.57766,-0.60110,-0.60916,-0.59524,-0.62747,-0.62747
0.02894,0.04139,-0.09267,-0.25678,-0.46923,-0.61648,-0.61575,-0.59084,-0.57766,-0.53663,-0.53956,-0.62161,-0.62747,-0.57326,-0.60256,-0.60696,-0.61429,-0.61502,-0.62747,-0.57766,-0.60110,-0.60916,-0.59524,-0.62747,-0.62747
0.02894,0.04139,-0.09267,-0.25678,-0.46923,-0.61648,-0.61575,-0.59084,-0.57766,-0.53663,-0.53956,-0.62161,-0.62747,-0.57326,-0.60256,-0.60696,-0.61429,-0.61502,-0.62747,-0.57766,-0.60110,-0.60916,-0.59524,-0.62747,-0.62747
0.02894,0.04139,-0.09267,-0.25678,-0.46923,-0.61648,-0.61575,-0.59084,-0.57766,-0.53663,-0.53956,-0.62161,-0.62747,-0.57326,-0.60256,-0.60696,-0.61429,-0.61502,-0.62747,-0.57766,-0.60110,-0.60916,-0.59524,-0.62747,-0.62747
0.02894,0.04139,-0.09267,-0.25678,-0.46923,-0.61648,-0.61575,-0.59084,-0.57766,-0.53663,-0.53956,-0.62161,-0.62747,-0.57326,-0.60256,-0.60696,-0.61429,-0.61502,-0.62747,-0.57766,-0.60110,-0.60916,-0.59524,-0.62747,-0.62747
0.02894,0.04139,-0.09267,-0.25678,-0.46923,-0.61648,-0.61575,-0.59084,-0.57766,-0.53663,-0.53956,-0.62161,-0.62747,-0.57326,-0.60256,-0.60696,-0.61429,-0.61502,-0.62747,-0.57766,-0.60110,-0.60916,-0.59524,-0.62747,-0.62747
0.02894,0.04139,-0.09267,-0.25678,-0.46923,-0.61648,-0.61575,-0.59084,-0.57766,-0.53663,-0.53956,-0.62161,-0.62747,-0.57326,-0.60256,-0.60696,-0.61429,-0.61502,-0.62747,-0.57766,-0.60110,-0.60916,-0.59524,-0.62747,-0.62747
0.02894,0.04139,-0.09267,-0.25678,-0.46923,-0.61648,-0.61575,-0.59084,-0.57766,-0.53663,-0.53956,-0.62161,-0.62747,-0.57326,-0.60256,-0.60696,-0.61429,-0.61502,-0.62747,-0.57766,-0.60110,-0.60916,-0.59524,-0.62747,-0.62747
0.02894,0.04139,-0.09267,-0.25678,-0.46923,-0.61648,-0.61575,-0.59084,-0.57766,-0.53663,-0.53956,-0.62161,-0.62747,-0.57326,-0.60256,-0.60696,-0.61429,-0.61502,-0.62747,-0.57766,-0.60110,-0.60916,-0.59524,-0.62747,-0.62747
0.02894,0.04139,-0.09267,-0.25678,-0.46923,-0.61648,-0.61575,-0.59084,-0.57766,-0.53663,-0.53956,-0.62161,-0.62747,-0.57326,-0.60256,-0.60696,-0.61429,-0.61502,-0.62747,-0.57766,-0.60110,-0.60916,-0.59524,-0.62747,-0.62747
0.02894,0.04139,-0.09267,-0.25678,-0.46923,-0.61648,-0.61575,-0.59084,-0.57766,-0.53663,-0.53956,-0.62161,-0.62747,-0.57326,-0.60256,-0.60696,-0.61429,-0.61502,-0.62747,-0.57766,-0.60110,-0.60916,-0.59524,-0.62747,-0.62747
0.02894,0.04139,-0.09267,-0.25678,-0.46923,-0.61648,-0.61575,-0.59084,-0.57766,-0.53663,-0.53956,-0.62161,-0.62747,-0.57326,-0.60256,-0.60696,-0.61429,-0.61502,-0.62747,-0.57766,-0.60110,-0.60916,-0.59524,-0.62747,-0.62747
-0.57326,-0.59670,-0.59670,-0.59524,-0.61136,-0.42234,-0.14542,-0.01722,-0.02821,-0.22601,-0.60403,-0.62747,-0.61062,-0.60183,-0.61282,-0.63626,-0.91612,0.19304,1.50000,-0.14615,-1.45311,-1.40330,-1.11978,-0.85018,-0.62674
-0.57326,-0.59670,-0.59670,-0.59524,-0.61136,-0.42234,-0.14542,-0.01722,-0.02821,-0.22601,-0.60403,-0.62747,-0.61062,-0.60183,-0.61282,-0.63626,-0.91612,0.19304,1.50000,-0.14615,-1.45311,-1.40330,-1.11978,-0.85018,-0.62674
-0.57326,-0.59670,-0.59670,-0.59524,-0.61136,-0.42234,-0.14542,-0.01722,-0.02821,-0.22601,-0.60403,-0.62747,-0.61062,-0.60183,-0.61282,-0.63626,-0.91612,0.19304,1.50000,-0.14615,-1.45311,-1.40330,-1.11978,-0.85018,-0.62674
-0.57326,-0.59670,-0.59670,-0.59524,-0.61136,-0.42234,-0.14542,-0.01722,-0.02821,-0.22601,-0.60403,-0.62747,-0.61062,-0.60183,-0.61282,-0.63626,-0.91612,0.19304,1.50000,-0.14615,-1.45311,-1.40330,-1.11978,-0.85018,-0.62674
-0.57326,-0.59670,-0.59670,-0.59524,-0.61136,-0.42234,-0.14542,-0.01722,-0.02821,-0.22601,-0.60403,-0.62747,-0.61062,-0.60183,-0.61282,-0.63626,-0.91612,0.19304,1.50000,-0.14615,-1.45311,-1.40330,-1.11978,-0.85018,-0.62674
-0.57326,-0.59670,-0.59670,-0.59524,-0.61136,-0.42234,-0.14542,-0.01722,-0.02821,-0.22601,-0.60403,-0.62747,-0.61062,-0.60183,-0.61282,-0.63626,-0.91612,0.19304,1.50000,-0.14615,-1.45311,-1.40330,-1.11978,-0.85018,-0.62674
-0.57326,-0.59670,-0.59670,-0.59524,-0.61136,-0.42234,-0.14542,-0.01722,-0.02821,-0.22601,-0.60403,-0.62747,-0.61062,-0.60183,-0.61282,-0.63626,-0.91612,0.19304,1.50000,-0.14615,-1.45311,-1.40330,-1.11978,-0.85018,-0.62674
-0.57326,-0.59670,-0.59670,-0.59524,-0.61136,-0.42234,-0.14542,-0.01722,-0.02821,-0.22601,-0.60403,-0.62747,-0.61062,-0.60183,-0.61282,-0.63626,-0.91612,0.19304,1.50000,-0.14615,-1.45311,-1.40330,-1.11978,-0.85018,-0.62674
-0.57326,-0.59670,-0.59670,-0.59524,-0.61136,-0.42234,-0.14542,-0.01722,-0.02821,-0.22601,-0.60403,-0.62747,-0.61062,-0.60183,-0.61282,-0.63626,-0.91612,0.19304,1.50000,-0.14615,-1.45311,-1.40330,-1.11978,-0.85018,-0.62674
-0.57326,-0.59670,-0.59670,-0.59524,-0.61136,-0.42234,-0.14542,-0.01722,-0.02821,-0.22601,-0.60403,-0.62747,-0.61062,-0.60183,-0.61282,-0.63626,-0.91612,0.19304,1.50000,-0.14615,-1.45311,-1.40330,-1.11978,-0.85018,-0.62674
-0.57326,-0.59670,-0.59670,-0.59524,-0.61136,-0.42234,-0.14542,-0.01722,-0.02821,-0.22601,-0.60403,-0.62747,-0.61062,-0.60183,-0.61282,-0.63626,-0.91612,0.19304,1.50000,-0.14615,-1.45311,-1.40330,-1.11978,-0.85018,-0.62674
-0.57326,-0.59670,-0.59670,-0.59524,-0.61136,-0.42234,-0.14542,-0.01722,-0.02821,-0.22601,-0.60403,-0.62747,-0.61062,-0.60183,-0.61282,-0.63626,-0.91612,0.19304,1.50000,-0.14615,-1.45311,-1.40330,-1.11978,-0.85018,-0.62674
-0.57326,-0.59670,-0.59670,-0.59524,-0.61136,-0.42234,-0.14542,-0.01722,-0.02821,-0.22601,-0.60403,-0.62747,-0.61062,-0.60183,-0.61282,-0.63626,-0.91612,0.19304,1.50000,-0.14615,-1.45311,-1.40330,-1.11978,-0.85018,-0.62674
-0.57326,-0.59670,-0.59670,-0.59524,-0.61136,-0.42234,-0.14542,-0.01722,-0.02821,-0.22601,-0.60403,-0.62747,-0.61062,-0.60183,-0.61282,-0.63626,-0.91612,0.19304,1.50000,-0.14615,-1.45311,-1.40330,-1.11978,-0.85018,-0.62674
-0.57326,-0.59670,-0.59670,-0.59524,-0.61136,-0.42234,-0.14542,-0.01722,-0.02821,-0.22601,-0.60403,-0.62747,-0.61062,-0.60183,-0.61282,-0.63626,-0.91612,0.19304,1.50000,-0.14615,-1.45311,-1.40330,-1.11978,-0.85018,-0.62674
-0.60110,-0.59670,-0.60989,-0.62821,-0.62747,-0.57399,-0.40916,-0.25824,-0.09853,0.00403,0.02821,0.04799,-0.09707,-0.25678,-0.48388,-0.60256,-0.60989,-0.60403,-0.58571,-0.53956,-0.54249,-0.62821,-0.62821,-0.59158,-0.61429
-0.60110,-0.59670,-0.60989,-0.62821,-0.62747,-0.57399,-0.40916,-0.25824,-0.09853,0.00403,0.02821,0.04799,-0.09707,-0.25678,-0.48388,-0.60256,-0.60989,-0.60403,-0.58571,-0.53956,-0.54249,-0.62821,-0.62821,-0.59158,-0.61429
-0.60110,-0.59670,-0.60989,-0.62821,-0.62747,-0.57399,-0.40916,-0.25824,-0.09853,0.00403,0.02821,0.04799,-0.09707,-0.25678,-0.48388,-0.60256,-0.60989,-0.60403,-0.58571,-0.53956,-0.54249,-0.62821,-0.62821,-0.59158,-0.61429
-0.60110,-0.59670,-0.60989,-0.62821,-0.62747,-0.57399,-0.40916,-0.25824,-0.09853,0.00403,0.02821,0.04799,-0.09707,-0.25678,-0.48388,-0.60256,-0.60989,-0.60403,-0.58571,-0.53956,-0.54249,-0.62821,-0.62821,-0.59158,-0.61429
-0.60110,-0.59670,-0.60989,-0.62821,-0.62747,-0.57399,-0.40916,-0.25824,-0.09853,0.00403,0.02821,0.04799,-0.09707,-0.25678,-0.48388,-0.60256,-0.60989,-0.60403,-0.58571,-0.53956,-0.54249,-0.62821,-0.62821,-0.59158,-0.61429
-0.60110,-0.59670,-0.60989,-0.62821,-0.62747,-0.57399,-0.40916,-0.25824,-0.09853,0.00403,0.02821,0.04799,-0.09707,-0.25678,-0.48388,-0.60256,-0.60989,-0.60403,-0.58571,-0.53956,-0.54249,-0.62821,-0.62821,-0.59158,-0.61429
-0.60110,-0.59670,-0.60989,-0.62821,-0.62747,-0.57399,-0.40916,-0.25824,-0.09853,0.00403,0.02821,0.04799,-0.09707,-0.25678,-0.48388,-0.60256,-0.60989,-0.60403,-0.58571,-0.53956,-0.54249,-0.62821,-0.62821,-0.59158,-0.61429
-0.60110,-0.59670,-0.60989,-0.62821,-0.62747,-0.57399,-0.40916,-0.25824,-0.09853,0.00403,0.02821,0.04799,-0.09707,-0.25678,-0.48388,-0.60256,-0.60989,-0.60403,-0.58571,-0.53956,-0.54249,-0.62821,-0.62821,-0.59158,-0.61429
-0.60110,-0.59670,-0.60989,-0.62821,-0.62747,-0.57399,-0.40916,-0.25824,-0.09853,0.00403,0.02821,0.04799,-0.09707,-0.25678,-0.48388,-0.60256,-0.60989,-0.60403,-0.58571,-0.53956,-0.54249,-0.62821,-0.62821,-0.59158,-0.61429
-0.60110,-0.59670,-0.60989,-0.62821,-0.62747,-0.57399,-0.40916,-0.25824,-0.09853,0.00403,0.02821,0.04799,-0.09707,-0.25678,-0.48388,-0.60256,-0.60989,-0.60403,-0.58571,-0.53956,-0.54249,-0.62821,-0.62821,-0.59158,-0.61429
-0.60110,-0.59670,-0.60989,-0.62821,-0.62747,-0.57399,-0.40916,-0.25824,-0.09853,0.00403,0.02821,0.04799,-0.09707,-0.25678,-0.48388,-0.60256,-0.60989,-0.60403,-0.58571,-0.53956,-0.54249,-0.62821,-0.62821,-0.59158,-0.61429
-0.60110,-0.59670,-0.60989,-0.62821,-0.62747,-0.57399,-0.40916,-0.25824,-0.09853,0.00403,0.02821,0.04799,-0.09707,-0.25678,-0.48388,-0.60256,-0.60989,-0.60403,-0.58571,-0.53956,-0.54249,-0.62821,-0.62821,-0.59158,-0.61429
-0.60110,-0.59670,-0.60989,-0.62821,-0.62747,-0.57399,-0.40916,-0.25824,-0.09853,0.00403,0.02821,0.04799,-0.09707,-0.25678,-0.48388,-0.60256,-0.60989,-0.60403,-0.58571,-0.53956,-0.54249,-0.62821,-0.62821,-0.59158,-0.61429
-0.60110,-0.59670,-0.60989,-0.62821,-0.62747,-0.57399,-0.40916,-0.25824,-0.09853,0.00403,0.02821,0.04799,-0.09707,-0.25678,-0.48388,-0.60256,-0.60989,-0.60403,-0.58571,-0.53956,-0.54249,-0.62821,-0.62821,-0.59158,-0.61429
-0.60110,-0.59670,-0.60989,-0.62821,-0.62747,-0.57399,-0.40916,-0.25824,-0.09853,0.00403,0.02821,0.04799,-0.09707,-0.25678,-0.48388,-0.60256,-0.60989,-0.60403,-0.58571,-0.53956,-0.54249,-0.62821,-0.62821,-0.59158,-0.61429
-0.59670,-0.59158,-0.62747,-0.61575,-0.57326,-0.60256,-0.60110,-0.59670,-0.63919,-0.62161,-0.59084,-0.59158,-0.58938,-0.61282,-0.63919,-0.43993,-0.14542,-0.01648,-0.01502,-0.21575,-0.60403,-0.61575,-0.57766,-0.59670,-0.59670
-0.59670,-0.59158,-0.62747,-0.61575,-0.57326,-0.60256,-0.60110,-0.59670,-0.63919,-0.62161,-0.59084,-0.59158,-0.58938,-0.61282,-0.63919,-0.43993,-0.14542,-0.01648,-0.01502,-0.21575,-0.60403,-0.61575,-0.57766,-0.59670,-0.59670
-0.59670,-0.59158,-0.62747,-0.61575,-0.57326,-0.60256,-0.60110,-0.59670,-0.63919,-0.62161,-0.59084,-0.59158,-0.58938,-0.61282,-0.63919,-0.43993,-0.14542,-0.01648,-0.01502,-0.21575,-0.60403,-0.61575,-0.57766,-0.59670,-0.59670
-0.59670,-0.59158,-0.62747,-0.61575,-0.57326,-0.60256,-0.60110,-0.59670,-0.63919,-0.62161,-0.59084,-0.59158,-0.58938,-0.61282,-0.63919,-0.43993,-0.14542,-0.01648,-0.01502,-0.21575,-0.60403,-0.61575,-0.57766,-0.59670,-0.59670
-0.59670,-0.59158,-0.62747,-0.61575,-0.57326,-0.60256,-0.60110,-0.59670,-0.63919,-0.62161,-0.59084,-0.59158,-0.58938,-0.61282,-0.63919,-0.43993,-0.14542,-0.01648,-0.01502,-0.21575,-0.60403,-0.61575,-0.57766,-0.59670,-0.59670
-0.59670,-0.59158,-0.62747,-0.61575,-0.57326,-0.60256,-0.60110,-0.59670,-0.63919,-0.62161,-0.59084,-0.59158,-0.58938,-0.61282,-0.63919,-0.43993,-0.14542,-0.01648,-0.01502,-0.21575,-0.60403,-0.61575,-0.57766,-0.59670,-0.59670
-0.59670,-0.59158,-0.62747,-0.61575,-0.57326,-0.60256,-0.60110,-0.59670,-0.63919,-0.62161,-0.59084,-0.59158,-0.58938,-0.61282,-0.63919,-0.43993,-0.14542,-0.01648,-0.01502,-0.21575,-0.60403,-0.61575,-0.57766,-0.59670,-0.59670
-0.59670,-0.59158,-0.62747,-0.61575,-0.57326,-0.60256,-0.60110,-0.59670,-0.63919,-0.62161,-0.59084,-0.59158,-0.58938,-0.61282,-0.63919,-0.43993,-0.14542,-0.01648,-0.01502,-0.21575,-0.60403,-0.61575,-0.57766,-0.59670,-0.59670
-0.59670,-0.59158,-0.62747,-0.61575,-0.57326,-0.60256,-0.60110,-0.59670,-0.63919,-0.62161,-0.59084,-0.59158,-0.58938,-0.61282,-0.63919,-0.43993,-0.14542,-0.01648,-0.01502,-0.21575,-0.60403,-0.61575,-0.57766,-0.59670,-0.59670
-0.59670,-0.59158,-0.62747,-0.61575,-0.57326,-0.60256,-0.60110,-0.59670,-0.63919,-0.62161,-0.59084,-0.59158,-0.58938,-0.61282,-0.63919,-0.43993,-0.14542,-0.01648,-0.01502,-0.21575,-0.60403,-0.61575,-0.57766,-0.59670,-0.59670
-0.59670,-0.59158,-0.62747,-0.61575,-0.57326,-0.60256,-0.60110,-0.59670,-0.63919,-0.62161,-0.59084,-0.59158,-0.58938,-0.61282,-0.63919,-0.43993,-0.14542,-0.01648,-0.01502,-0.21575,-0.60403,-0.61575,-0.57766,-0.59670,-0.59670
-0.59670,-0.59158,-0.62747,-0.61575,-0.57326,-0.60256,-0.60110,-0.59670,-0.63919,-0.62161,-0.59084,-0.59158,-0.58938,-0.61282,-0.63919,-0.43993,-0.14542,-0.01648,-0.01502,-0.21575,-0.60403,-0.61575,-0.57766,-0.59670,-0.59670
-0.59670,-0.59158,-0.62747,-0.61575,-0.57326,-0.60256,-0.60110,-0.59670,-0.63919,-0.62161,-0.59084,-0.59158,-0.58938,-0.61282,-0.63919,-0.43993,-0.14542,-0.01648,-0.01502,-0.21575,-0.60403,-0.61575,-0.57766,-0.59670,-0.59670
-0.59670,-0.59158,-0.62747,-0.61575,-0.57326,-0.60256,-0.60110,-0.59670,-0.63919,-0.62161,-0.59084,-0.59158,-0.58938,-0.61282,-0.63919,-0.43993,-0.14542,-0.01648,-0.01502,-0.21575,-0.60403,-0.61575,-0.57766,-0.59670,-0.59670
-0.59670,-0.59158,-0.62747,-0.61575,-0.57326,-0.60256,-0.60110,-0.59670,-0.63919,-0.62161,-0.59084,-0.59158,-0.58938,-0.61282,-0.63919,-0.43993,-0.14542,-0.01648,-0.01502,-0.21575,-0.60403,-0.61575,-0.57766,-0.59670,-0.59670
-0.61575,-0.90293,0.15788,1.50000,-0.11612,-1.44505,-1.40623,-1.09487,-0.86190,-0.64799,-0.60842,-0.60842,-0.60256,-0.62821,-0.63333,-0.59084,-0.43846,-0.26117,-0.11026,-0.01868,0.04066,0.04066,-0.09267,-0.25165,-0.46630
-0.61575,-0.90293,0.15788,1.50000,-0.11612,-1.44505,-1.40623,-1.09487,-0.86190,-0.64799,-0.60842,-0.60842,-0.60256,-0.62821,-0.63333,-0.59084,-0.43846,-0.26117,-0.11026,-0.01868,0.04066,0.04066,-0.09267,-0.25165,-0.46630
-0.61575,-0.90293,0.15788,1.50000,-0.11612,-1.44505,-1.40623,-1.09487,-0.86190,-0.64799,-0.60842,-0.60842,-0.60256,-0.62821,-0.63333,-0.59084,-0.43846,-0.26117,-0.11026,-0.01868,0.04066,0.04066,-0.09267,-0.25165,-0.46630
-0.61575,-0.90293,0.15788,1.50000,-0.11612,-1.44505,-1.40623,-1.09487,-0.86190,-0.64799,-0.60842,-0.60842,-0.60256,-0.62821,-0.63333,-0.59084,-0.43846,-0.26117,-0.11026,-0.01868,0.04066,0.04066,-0.09267,-0.25165,-0.46630
-0.61575,-0.90293,0.15788,1.50000,-0.11612,-1.44505,-1.40623,-1.09487,-0.86190,-0.64799,-0.60842,-0.60842,-0.60256,-0.62821,-0.63333,-0.59084,-0.43846,-0.26117,-0.11026,-0.01868,0.04066,0.04066,-0.09267,-0.25165,-0.46630
-0.61575,-0.90293,0.15788,1.50000,-0.11612,-1.44505,-1.40623,-1.09487,-0.86190,-0.64799,-0.60842,-0.60842,-0.60256,-0.62821,-0.63333,-0.59084,-0.43846,-0.26117,-0.11026,-0.01868,0.04066,0.04066,-0.09267,-0.25165,-0.46630
-0.61575,-0.90293,0.15788,1.50000,-0.11612,-1.44505,-1.40623,-1.09487,-0.86190,-0.64799,-0.60842,-0.60842,-0.60256,-0.62821,-0.63333,-0.59084,-0.43846,-0.26117,-0.11026,-0.01868,0.04066,0.04066,-0.09267,-0.25165,-0.46630
-0.61575,-0.90293,0.15788,1.50000,-0.11612,-1.44505,-1.40623,-1.09487,-0.86190,-0.64799,-0.60842,-0.60842,-0.60256,-0.62821,-0.63333,-0.59084,-0.43846,-0.26117,-0.11026,-0.01868,0.04066,0.04066,-0.09267,-0.25165,-0.46630
-0.61575,-0.90293,0.15788,1.50000,-0.11612,-1.44505,-1.40623,-1.09487,-0.86190,-0.64799,-0.60842,-0.60842,-0.60256,-0.62821,-0.63333,-0.59084,-0.43846,-0.26117,-0.11026,-0.01868,0.04066,0.04066,-0.09267,-0.25165,-0.46630
-0.61575,-0.90293,0.15788,1.50000,-0.11612,-1.44505,-1.40623,-1.09487,-0.86190,-0.64799,-0.60842,-0.60842,-0.60256,-0.62821,-0.63333,-0.59084,-0.43846,-0.26117,-0.11026,-0.01868,0.04066,0.04066,-0.09267,-0.25165,-0.46630
-0.61575,-0.90293,0.15788,1.50000,-0.11612,-1.44505,-1.40623,-1.09487,-0.86190,-0.64799,-0.60842,-0.60842,-0.60256,-0.62821,-0.63333,-0.59084,-0.43846,-0.26117,-0.11026,-0.01868,0.04066,0.04066,-0.09267,-0.25165,-0.46630
-0.61575,-0.90293,0.15788,1.50000,-0.11612,-1.44505,-1.40623,-1.09487,-0.86190,-0.64799,-0.60842,-0.60842,-0.60256,-0.62821,-0.63333,-0.59084,-0.43846,-0.26117,-0.11026,-0.01868,0.04066,0.04066,-0.09267,-0.25165,-0.46630
-0.61575,-0.90293,0.15788,1.50000,-0.11612,-1.44505,-1.40623,-1.09487,-0.86190,-0.64799,-0.60842,-0.60842,-0.60256,-0.62821,-0.63333,-0.59084,-0.43846,-0.26117,-0.11026,-0.01868,0.04066,0.04066,-0.09267,-0.25165,-0.46630
-0.61575,-0.90293,0.15788,1.50000,-0.11612,-1.44505,-1.40623,-1.09487,-0.86190,-0.64799,-0.60842,-0.60842,-0.60256,-0.62821,-0.63333,-0.59084,-0.43846,-0.26117,-0.11026,-0.01868,0.04066,0.04066,-0.09267,-0.25165,-0.46630
-0.61575,-0.90293,0.15788,1.50000,-0.11612,-1.44505,-1.40623,-1.09487,-0.86190,-0.64799,-0.60842,-0.60842,-0.60256,-0.62821,-0.63333,-0.59084,-0.43846,-0.26117,-0.11026,-0.01868,0.04066,0.04066,-0.09267,-0.25165,-0.46630
-0.62161,-0.62821,-0.57985,-0.59084,-0.53223,-0.52637,-0.61795,-0.61648,-0.59084,-0.60842,-0.60989,-0.60989,-0.63919,-0.61648,-0.58571,-0.60916,-0.59158,-0.61429,-0.62161,-0.62747,-0.57326,-0.60842,-0.60403,-0.60989,-0.62747
-0.62161,-0.62821,-0.57985,-0.59084,-0.53223,-0.52637,-0.61795,-0.61648,-0.59084,-0.60842,-0.60989,-0.60989,-0.63919,-0.61648,-0.58571,-0.60916,-0.59158,-0.61429,-0.62161,-0.62747,-0.57326,-0.60842,-0.60403,-0.60989,-0.62747
-0.62161,-0.62821,-0.57985,-0.59084,-0.53223,-0.52637,-0.61795,-0.61648,-0.59084,-0.60842,-0.60989,-0.60989,-0.63919,-0.61648,-0.58571,-0.60916,-0.59158,-0.61429,-0.62161,-0.62747,-0.57326,-0.60842,-0.60403,-0.60989,-0.62747
-0.62161,-0.62821,-0.57985,-0.59084,-0.53223,-0.52637,-0.61795,-0.61648,-0.59084,-0.60842,-0.60989,-0.60989,-0.63919,-0.61648,-0.58571,-0.60916,-0.59158,-0.61429,-0.62161,-0.62747,-0.57326,-0.60842,-0.60403,-0.60989,-0.62747
-0.62161,-0.62821,-0.57985,-0.59084,-0.53223,-0.52637,-0.61795,-0.61648,-0.59084,-0.60842,-0.60989,-0.60989,-0.63919,-0.61648,-0.58571,-0.60916,-0.59158,-0.61429,-0.62161,-0.62747,-0.57326,-0.60842,-0.60403,-0.60989,-0.62747
-0.62161,-0.62821,-0.57985,-0.59084,-0.53223,-0.52637,-0.61795,-0.61648,-0.59084,-0.60842,-0.60989,-0.60989,-0.63919,-0.61648,-0.58571,-0.60916,-0.59158,-0.61429,-0.62161,-0.62747,-0.57326,-0.60842,-0.60403,-0.60989,-0.62747
-0.62161,-0.62821,-0.57985,-0.59084,-0.53223,-0.52637,-0.61795,-0.61648,-0.59084,-0.60842,-0.60989,-0.60989,-0.63919,-0.61648,-0.58571,-0.60916,-0.59158,-0.61429,-0.62161,-0.62747,-0.57326,-0.60842,-0.60403,-0.60989,-0.62747
-0.62161,-0.62821,-0.57985,-0.59084,-0.53223,-0.52637,-0.61795,-0.61648,-0.59084,-0.60842,-0.60989,-0.60989,-0.63919,-0.61648,-0.58571,-0.60916,-0.59158,-0.61429,-0.62161,-0.62747,-0.57326,-0.60842,-0.60403,-0.60989,-0.62747
-0.62161,-0.62821,-0.57985,-0.59084,-0.53223,-0.52637,-0.61795,-0.61648,-0.59084,-0.60842,-0.60989,-0.60989,-0.63919,-0.61648,-0.58571,-0.60916,-0.59158,-0.61429,-0.62161,-0.62747,-0.57326,-0.60842,-0.60403,-0.60989,-0.62747
-0.62161,-0.62821,-0.57985,-0.59084,-0.53223,-0.52637,-0.61795,-0.61648,-0.59084,-0.60842,-0.60989,-0.60989,-0.63919,-0.61648,-0.58571,-0.60916,-0.59158,-0.61429,-0.62161,-0.62747,-0.57326,-0.60842,-0.60403,-0.60989,-0.62747
-0.62161,-0.62821,-0.57985,-0.59084,-0.53223,-0.52637,-0.61795,-0.61648,-0.59084,-0.60842,-0.60989,-0.60989,-0.63919,-0.61648,-0.58571,-0.60916,-0.59158,-0.61429,-0.62161,-0.62747,-0.57326,-0.60842,-0.60403,-0.60989,-0.62747
-0.62161,-0.62821,-0.57985,-0.59084,-0.53223,-0.52637,-0.61795,-0.61648,-0.59084,-0.60842,-0.60989,-0.60989,-0.63919,-0.61648,-0.58571,-0.60916,-0.59158,-0.61429,-0.62161,-0.62747,-0.57326,-0.60842,-0.60403,-0.60989,-0.62747
-0.62161,-0.62821,-0.57985,-0.59084,-0.53223,-0.52637,-0.61795,-0.61648,-0.59084,-0.60842,-0.60989,-0.60989,-0.63919,-0.61648,-0.58571,-0.60916,-0.59158,-0.61429,-0.62161,-0.62747,-0.57326,-0.60842,-0.60403,-0.60989,-0.62747
-0.62161,-0.62821,-0.57985,-0.59084,-0.53223,-0.52637,-0.61795,-0.61648,-0.59084,-0.60842,-0.60989,-0.60989,-0.63919,-0.61648,-0.58571,-0.60916,-0.59158,-0.61429,-0.62161,-0.62747,-0.57326,-0.60842,-0.60403,-0.60989,-0.62747
-0.62161,-0.62821,-0.57985,-0.59084,-0.53223,-0.52637,-0.61795,-0.61648,-0.59084,-0.60842,-0.60989,-0.60989,-0.63919,-0.61648,-0.58571,-0.60916,-0.59158,-0.61429,-0.62161,-0.62747,-0.57326,-0.60842,-0.60403,-0.60989,-0.62747
-0.42821,-0.15714,-0.02308,-0.02234,-0.21575,-0.59231,-0.62747,-0.59524,-0.56447,-0.60256,-0.63333,-0.93370,0.13443,1.50000,-0.10440,-1.42308,-1.39744,-1.09560,-0.84432,-0.64359,-0.61429,-0.61429,-0.61429,-0.62747,-0.61575
-0.42821,-0.15714,-0.02308,-0.02234,-0.21575,-0.59231,-0.62747,-0.59524,-0.56447,-0.60256,-0.63333,-0.93370,0.13443,1.50000,-0.10440,-1.42308,-1.39744,-1.09560,-0.84432,-0.64359,-0.61429,-0.61429,-0.61429,-0.62747,-0.61575
-0.42821,-0.15714,-0.02308,-0.02234,-0.21575,-0.59231,-0.62747,-0.59524,-0.56447,-0.60256,-0.63333,-0.93370,0.13443,1.50000,-0.10440,-1.42308,-1.39744,-1.09560,-0.84432,-0.64359,-0.61429,-0.61429,-0.61429,-0.62747,-0.61575
-0.42821,-0.15714,-0.02308,-0.02234,-0.21575,-0.59231,-0.62747,-0.59524,-0.56447,-0.60256,-0.63333,-0.93370,0.13443,1.50000,-0.10440,-1.42308,-1.39744,-1.09560,-0.84432,-0.64359,-0.61429,-0.61429,-0.61429,-0.62747,-0.61575
-0.42821,-0.15714,-0.02308,-0.02234,-0.21575,-0.59231,-0.62747,-0.59524,-0.56447,-0.60256,-0.63333,-0.93370,0.13443,1.50000,-0.10440,-1.42308,-1.39744,-1.09560,-0.84432,-0.64359,-0.61429,-0.61429,-0.61429,-0.62747,-0.61575
-0.42821,-0.15714,-0.02308,-0.02234,-0.21575,-0.59231,-0.62747,-0.59524,-0.56447,-0.60256,-0.63333,-0.93370,0.13443,1.50000,-0.10440,-1.42308,-1.39744,-1.09560,-0.84432,-0.64359,-0.61429,-0.61429,-0.61429,-0.62747,-0.61575
-0.42821,-0.15714,-0.02308,-0.02234,-0.21575,-0.59231,-0.62747,-0.59524,-0.56447,-0.60256,-0.63333,-0.93370,0.13443,1.50000,-0.10440,-1.42308,-1.39744,-1.09560,-0.84432,-0.64359,-0.61429,-0.61429,-0.61429,-0.62747,-0.61575
-0.42821,-0.15714,-0.02308,-0.02234,-0.21575,-0.59231,-0.62747,-0.59524,-0.56447,-0.60256,-0.63333,-0.93370,0.13443,1.50000,-0.10440,-1.42308,-1.39744,-1.09560,-0.84432,-0.64359,-0.61429,-0.61429,-0.61429,-0.62747,-0.61575
-0.42821,-0.15714,-0.02308,-0.02234,-0.21575,-0.59231,-0.62747,-0.59524,-0.56447,-0.60256,-0.63333,-0.93370,0.13443,1.50000,-0.10440,-1.42308,-1.39744,-1.09560,-0.84432,-0.64359,-0.61429,-0.61429,-0.61429,-0.62747,-0.61575
-0.42821,-0.15714,-0.02308,-0.02234,-0.21575,-0.59231,-0.62747,-0.59524,-0.56447,-0.60256,-0.63333,-0.93370,0.13443,1.50000,-0.10440,-1.42308,-1.39744,-1.09560,-0.84432,-0.64359,-0.61429,-0.61429,-0.61429,-0.62747,-0.61575
-0.42821,-0.15714,-0.02308,-0.02234,-0.21575,-0.59231,-0.62747,-0.59524,-0.56447,-0.60256,-0.63333,-0.93370,0.13443,1.50000,-0.10440,-1.42308,-1.39744,-1.09560,-0.84432,-0.64359,-0.61429,-0.61429,-0.61429,-0.62747,-0.61575
-0.42821,-0.15714,-0.02308,-0.02234,-0.21575,-0.59231,-0.62747,-0.59524,-0.56447,-0.60256,-0.63333,-0.93370,0.13443,1.50000,-0.10440,-1.42308,-1.39744,-1.09560,-0.84432,-0.64359,-0.61429,-0.61429,-0.61429,-0.62747,-0.61575
-0.42821,-0.15714,-0.02308,-0.02234,-0.21575,-0.59231,-0.62747,-0.59524,-0.56447,-0.60256,-0.63333,-0.93370,0.13443,1.50000,-0.10440,-1.42308,-1.39744,-1.09560,-0.84432,-0.64359,-0.61429,-0.61429,-0.61429,-0.62747,-0.61575
-0.42821,-0.15714,-0.02308,-0.02234,-0.21575,-0.59231,-0.62747,-0.59524,-0.56447,-0.60256,-0.63333,-0.93370,0.13443,1.50000,-0.10440,-1.42308,-1.39744,-1.09560,-0.84432,-0.64359,-0.61429,-0.61429,-0.61429,-0.62747,-0.61575
-0.42821,-0.15714,-0.02308,-0.02234,-0.21575,-0.59231,-0.62747,-0.59524,-0.56447,-0.60256,-0.63333,-0.93370,0.13443,1.50000,-0.10440,-1.42308,-1.39744,-1.09560,-0.84432,-0.64359,-0.61429,-0.61429,-0.61429,-0.62747,-0.61575
-0.57766,-0.40916,-0.24505,-0.10879,-0.03040,0.02894,0.05311,-0.08755,-0.24945,-0.47949,-0.63919,-0.62747,-0.57912,-0.60110,-0.52637,-0.53956,-0.63919,-0.62161,-0.57985,-0.59084,-0.59670,-0.59084,-0.62161,-0.62747,-0.58498
-0.57766,-0.40916,-0.24505,-0.10879,-0.03040,0.02894,0.05311,-0.08755,-0.24945,-0.47949,-0.63919,-0.62747,-0.57912,-0.60110,-0.52637,-0.53956,-0.63919,-0.62161,-0.57985,-0.59084,-0.59670,-0.59084,-0.62161,-0.62747,-0.58498
-0.57766,-0.40916,-0.24505,-0.10879,-0.03040,0.02894,0.05311,-0.08755,-0.24945,-0.47949,-0.63919,-0.62747,-0.57912,-0.60110,-0.52637,-0.53956,-0.63919,-0.62161,-0.57985,-0.59084,-0.59670,-0.59084,-0.62161,-0.62747,-0.58498
-0.57766,-0.40916,-0.24505,-0.10879,-0.03040,0.02894,0.05311,-0.08755,-0.24945,-0.47949,-0.63919,-0.62747,-0.57912,-0.60110,-0.52637,-0.53956,-0.63919,-0.62161,-0.57985,-0.59084,-0.59670,-0.59084,-0.62161,-0.62747,-0.58498
-0.57766,-0.40916,-0.24505,-0.10879,-0.03040,0.02894,0.05311,-0.08755,-0.24945,-0.47949,-0.63919,-0.62747,-0.57912,-0.60110,-0.52637,-0.53956,-0.63919,-0.62161,-0.57985,-0.59084,-0.59670,-0.59084,-0.62161,-0.62747,-0.58498
-0.57766,-0.40916,-0.24505,-0.10879,-0.03040,0.02894,0.05311,-0.08755,-0.24945,-0.47949,-0.63919,-0.62747,-0.57912,-0.60110,-0.52637,-0.53956,-0.63919,-0.62161,-0.57985,-0.59084,-0.59670,-0.59084,-0.62161,-0.62747,-0.58498
-0.57766,-0.40916,-0.24505,-0.10879,-0.03040,0.02894,0.05311,-0.08755,-0.24945,-0.47949,-0.63919,-0.62747,-0.57912,-0.60110,-0.52637,-0.53956,-0.63919,-0.62161,-0.57985,-0.59084,-0.59670,-0.59084,-0.62161,-0.62747,-0.58498
-0.57766,-0.40916,-0.24505,-0.10879,-0.03040,0.02894,0.05311,-0.08755,-0.24945,-0.47949,-0.63919,-0.62747,-0.57912,-0.60110,-0.52637,-0.53956,-0.63919,-0.62161,-0.57985,-0.59084,-0.59670,-0.59084,-0.62161,-0.62747,-0.58498
-0.57766,-0.40916,-0.24505,-0.10879,-0.03040,0.02894,0.05311,-0.08755,-0.24945,-0.47949,-0.63919,-0.62747,-0.57912,-0.60110,-0.52637,-0.53956,-0.63919,-0.62161,-0.57985,-0.59084,-0.59670,-0.59084,-0.62161,-0.62747,-0.58498
-0.57766,-0.40916,-0.24505,-0.10879,-0.03040,0.02894,0.05311,-0.08755,-0.24945,-0.47949,-0.63919,-0.62747,-0.57912,-0.60110,-0.52637,-0.53956,-0.63919,-0.62161,-0.57985,-0.59084,-0.59670,-0.59084,-0.62161,-0.62747,-0.58498
-0.57766,-0.40916,-0.24505,-0.10879,-0.03040,0.02894,0.05311,-0.08755,-0.24945,-0.47949,-0.63919,-0.62747,-0.57912,-0.60110,-0.52637,-0.53956,-0.63919,-0.62161,-0.57985,-0.59084,-0.59670,-0.59084,-0.62161,-0.62747,-0.58498
-0.57766,-0.40916,-0.24505,-0.10879,-0.03040,0.02894,0.05311,-0.08755,-0.24945,-0.47949,-0.63919,-0.62747,-0.57912,-0.60110,-0.52637,-0.53956,-0.63919,-0.62161,-0.57985,-0.59084,-0.59670,-0.59084,-0.62161,-0.62747,-0.58498
-0.57766,-0.40916,-0.24505,-0.10879,-0.03040,0.02894,0.05311,-0.08755,-0.24945,-0.47949,-0.63919,-0.62747,-0.57912,-0.60110,-0.52637,-0.53956,-0.63919,-0.62161,-0.57985,-0.59084,-0.59670,-0.59084,-0.62161,-0.62747,-0.58498
-0.57766,-0.40916,-0.24505,-0.10879,-0.03040,0.02894,0.05311,-0.08755,-0.24945,-0.47949,-0.63919,-0.62747,-0.57912,-0.60110,-0.52637,-0.53956,-0.63919,-0.62161,-0.57985,-0.59084,-0.59670,-0.59084,-0.62161,-0.62747,-0.58498
-0.57766,-0.40916,-0.24505,-0.10879,-0.03040,0.02894,0.05311,-0.08755,-0.24945,-0.47949,-0.63919,-0.62747,-0.57912,-0.60110,-0.52637,-0.53956,-0.63919,-0.62161,-0.57985,-0.59084,-0.59670,-0.59084,-0.62161,-0.62747,-0.58498
-0.61429,-0.60842,-0.59963,-0.59963,-0.62747,-0.58571,-0.61282,-0.61429,-0.60110,-0.61209,-0.42821,-0.15128,-0.02234,-0.02821,-0.22015,-0.60403,-0.62747,-0.57766,-0.60842,-0.61429,-0.60989,-0.92271,0.12271,1.50000,-0.09853
-0.61429,-0.60842,-0.59963,-0.59963,-0.62747,-0.58571,-0.61282,-0.61429,-0.60110,-0.61209,-0.42821,-0.15128,-0.02234,-0.02821,-0.22015,-0.60403,-0.62747,-0.57766,-0.60842,-0.61429,-0.60989,-0.92271,0.12271,1.50000,-0.09853
-0.61429,-0.60842,-0.59963,-0.59963,-0.62747,-0.58571,-0.61282,-0.61429,-0.60110,-0.61209,-0.42821,-0.15128,-0.02234,-0.02821,-0.22015,-0.60403,-0.62747,-0.57766,-0.60842,-0.61429,-0.60989,-0.92271,0.12271,1.50000,-0.09853
-0.61429,-0.60842,-0.59963,-0.59963,-0.62747,-0.58571,-0.61282,-0.61429,-0.60110,-0.61209,-0.42821,-0.15128,-0.02234,-0.02821,-0.22015,-0.60403,-0.62747,-0.57766,-0.60842,-0.61429,-0.60989,-0.92271,0.12271,1.50000,-0.09853
-0.61429,-0.60842,-0.59963,-0.59963,-0.62747,-0.58571,-0.61282,-0.61429,-0.60110,-0.61209,-0.42821,-0.15128,-0.02234,-0.02821,-0.22015,-0.60403,-0.62747,-0.57766,-0.60842,-0.61429,-0.60989,-0.92271,0.12271,1.50000,-0.09853
-0.61429,-0.60842,-0.59963,-0.59963,-0.62747,-0.58571,-0.61282,-0.61429,-0.60110,-0.61209,-0.42821,-0.15128,-0.02234,-0.02821,-0.22015,-0.60403,-0.62747,-0.57766,-0.60842,-0.61429,-0.60989,-0.92271,0.12271,1.50000,-0.09853
-0.61429,-0.60842,-0.59963,-0.59963,-0.62747,-0.58571,-0.61282,-0.61429,-0.60110,-0.61209,-0.42821,-0.15128,-0.02234,-0.02821,-0.22015,-0.60403,-0.62747,-0.57766,-0.60842,-0.61429,-0.60989,-0.92271,0.12271,1.50000,-0.09853
-0.61429,-0.60842,-0.59963,-0.59963,-0.62747,-0.58571,-0.61282,-0.61429,-0.60110,-0.61209,-0.42821,-0.15128,-0.02234,-0.02821,-0.22015,-0.60403,-0.62747,-0.57766,-0.60842,-0.61429,-0.60989,-0.92271,0.12271,1.50000,-0.09853
-0.61429,-0.60842,-0.59963,-0.59963,-0.62747,-0.58571,-0.61282,-0.61429,-0.60110,-0.61209,-0.42821,-0.15128,-0.02234,-0.02821,-0.22015,-0.60403,-0.62747,-0.57766,-0.60842,-0.61429,-0.60989,-0.92271,0.12271,1.50000,-0.09853
-0.61429,-0.60842,-0.59963,-0.59963,-0.62747,-0.58571,-0.61282,-0.61429,-0.60110,-0.61209,-0.42821,-0.15128,-0.02234,-0.02821,-0.22015,-0.60403,-0.62747,-0.57766,-0.60842,-0.61429,-0.60989,-0.92271,0.12271,1.50000,-0.09853
-0.61429,-0.60842,-0.59963,-0.59963,-0.62747,-0.58571,-0.61282,-0.61429,-0.60110,-0.61209,-0.42821,-0.15128,-0.02234,-0.02821,-0.22015,-0.60403,-0.62747,-0.57766,-0.60842,-0.61429,-0.60989,-0.92271,0.12271,1.50000,-0.09853
-0.61429,-0.60842,-0.59963,-0.59963,-0.62747,-0.58571,-0.61282,-0.61429,-0.60110,-0.61209,-0.42821,-0.15128,-0.02234,-0.02821,-0.22015,-0.60403,-0.62747,-0.57766,-0.60842,-0.61429,-0.60989,-0.92271,0.12271,1.50000,-0.09853
-0.61429,-0.60842,-0.59963,-0.59963,-0.62747,-0.58571,-0.61282,-0.61429,-0.60110,-0.61209,-0.42821,-0.15128,-0.02234,-0.02821,-0.22015,-0.60403,-0.62747,-0.57766,-0.60842,-0.61429,-0.60989,-0.92271,0.12271,1.50000,-0.09853
-0.61429,-0.60842,-0.59963,-0.59963,-0.62747,-0.58571,-0.61282,-0.61429,-0.60110,-0.61209,-0.42821,-0.15128,-0.02234,-0.02821,-0.22015,-0.60403,-0.62747,-0.57766,-0.60842,-0.61429,-0.60989,-0.92271,0.12271,1.50000,-0.09853
-0.61429,-0.60842,-0.59963,-0.59963,-0.62747,-0.58571,-0.61282,-0.61429,-0.60110,-0.61209,-0.42821,-0.15128,-0.02234,-0.02821,-0.22015,-0.60403,-0.62747,-0.57766,-0.60842,-0.61429,-0.60989,-0.92271,0.12271,1.50000,-0.09853
-1.42894,-1.42088,-1.12564,-0.86777,-0.64359,-0.61429,-0.60696,-0.60110,-0.63919,-0.61575,-0.58498,-0.42747,-0.26264,-0.11026,0.00110,0.02894,0.03553,-0.07509,-0.25824,-0.47802,-0.59963,-0.61575,-0.59084,-0.58498,-0.52051
-1.42894,-1.42088,-1.12564,-0.86777,-0.64359,-0.61429,-0.60696,-0.60110,-0.63919,-0.61575,-0.58498,-0.42747,-0.26264,-0.11026,0.00110,0.02894,0.03553,-0.07509,-0.25824,-0.47802,-0.59963,-0.61575,-0.59084,-0.58498,-0.52051
-1.42894,-1.42088,-1.12564,-0.86777,-0.64359,-0.61429,-0.60696,-0.60110,-0.63919,-0.61575,-0.58498,-0.42747,-0.26264,-0.11026,0.00110,0.02894,0.03553,-0.07509,-0.25824,-0.47802,-0.59963,-0.61575,-0.59084,-0.58498,-0.52051
-1.42894,-1.42088,-1.12564,-0.86777,-0.64359,-0.61429,-0.60696,-0.60110,-0.63919,-0.61575,-0.58498,-0.42747,-0.26264,-0.11026,0.00110,0.02894,0.03553,-0.07509,-0.25824,-0.47802,-0.59963,-0.61575,-0.59084,-0.58498,-0.52051
-1.42894,-1.42088,-1.12564,-0.86777,-0.64359,-0.61429,-0.60696,-0.60110,-0.63919,-0.61575,-0.58498,-0.42747,-0.26264,-0.11026,0.00110,0.02894,0.03553,-0.07509,-0.25824,-0.47802,-0.59963,-0.61575,-0.59084,-0.58498,-0.52051
-1.42894,-1.42088,-1.12564,-0.86777,-0.64359,-0.61429,-0.60696,-0.60110,-0.63919,-0.61575,-0.58498,-0.42747,-0.26264,-0.11026,0.00110,0.02894,0.03553,-0.07509,-0.25824,-0.47802,-0.59963,-0.61575,-0.59084,-0.58498,-0.52051
-1.42894,-1.42088,-1.12564,-0.86777,-0.64359,-0.61429,-0.60696,-0.60110,-0.63919,-0.61575,-0.58498,-0.42747,-0.26264,-0.11026,0.00110,0.02894,0.03553,-0.07509,-0.25824,-0.47802,-0.59963,-0.61575,-0.59084,-0.58498,-0.52051
-1.42894,-1.42088,-1.12564,-0.86777,-0.64359,-0.61429,-0.60696,-0.60110,-0.63919,-0.61575,-0.58498,-0.42747,-0.26264,-0.11026,0.00110,0.02894,0.03553,-0.07509,-0.25824,-0.47802,-0.59963,-0.61575,-0.59084,-0.58498,-0.52051
-1.42894,-1.42088,-1.12564,-0.86777,-0.64359,-0.61429,-0.60696,-0.60110,-0.63919,-0.61575,-0.58498,-0.42747,-0.26264,-0.11026,0.00110,0.02894,0.03553,-0.07509,-0.25824,-0.47802,-0.59963,-0.61575,-0.59084,-0.58498,-0.52051
-1.42894,-1.42088,-1.12564,-0.86777,-0.64359,-0.61429,-0.60696,-0.60110,-0.63919,-0.61575,-0.58498,-0.42747,-0.26264,-0.11026,0.00110,0.02894,0.03553,-0.07509,-0.25824,-0.47802,-0.59963,-0.61575,-0.59084,-0.58498,-0.52051
-1.42894,-1.42088,-1.12564,-0.86777,-0.64359,-0.61429,-0.60696,-0.60110,-0.63919,-0.61575,-0.58498,-0.42747,-0.26264,-0.11026,0.00110,0.02894,0.03553,-0.07509,-0.25824,-0.47802,-0.59963,-0.61575,-0.59084,-0.58498,-0.52051
-1.42894,-1.42088,-1.12564,-0.86777,-0.64359,-0.61429,-0.60696,-0.60110,-0.63919,-0.61575,-0.58498,-0.42747,-0.26264,-0.11026,0.00110,0.02894,0.03553,-0.07509,-0.25824,-0.47802,-0.59963,-0.61575,-0.59084,-0.58498,-0.52051
-1.42894,-1.42088,-1.12564,-0.86777,-0.64359,-0.61429,-0.60696,-0.60110,-0.63919,-0.61575,-0.58498,-0.42747,-0.26264,-0.11026,0.00110,0.02894,0.03553,-0.07509,-0.25824,-0.47802,-0.59963,-0.61575,-0.59084,-0.58498,-0.52051
-1.42894,-1.42088,-1.12564,-0.86777,-0.64359,-0.61429,-0.60696,-0.60110,-0.63919,-0.61575,-0.58498,-0.42747,-0.26264,-0.11026,0.00110,0.02894,0.03553,-0.07509,-0.25824,-0.47802,-0.59963,-0.61575,-0.59084,-0.58498,-0.52051
-1.42894,-1.42088,-1.12564,-0.86777,-0.64359,-0.61429,-0.60696,-0.60110,-0.63919,-0.61575,-0.58498,-0.42747,-0.26264,-0.11026,0.00110,0.02894,0.03553,-0.07509,-0.25824,-0.47802,-0.59963,-0.61575,-0.59084,-0.58498,-0.52051
-1.42894,-1.42088,-1.12564,-0.86777,-0.64359,-0.61429,-0.60696,-0.60110,-0.63919,-0.61575,-0.58498,-0.42747,-0.26264,-0.11026,0.00110,0.02894,0.03553,-0.07509,-0.25824,-0.47802,-0.59963,-0.61575,-0.59084,-0.58498,-0.52051
-1.42894,-1.42088,-1.12564,-0.86777,-0.64359,-0.61429,-0.60696,-0.60110,-0.63919,-0.61575,-0.58498,-0.42747,-0.26264,-0.11026,0.00110,0.02894,0.03553,-0.07509,-0.25824,-0.47802,-0.59963,-0.61575,-0.59084,-0.58498,-0.52051
-1.42894,-1.42088,-1.12564,-0.86777,-0.64359,-0.61429,-0.60696,-0.60110,-0.63919,-0.61575,-0.58498,-0.42747,-0.26264,-0.11026,0.00110,0.02894,0.03553,-0.07509,-0.25824,-0.47802,-0.59963,-0.61575,-0.59084,-0.58498,-0.52051
-0.52637,-0.60256,-0.61575,-0.58498,-0.57985,-0.60110,-0.61429,-0.62747,-0.61575,-0.59670,-0.60842,-0.60989,-0.60330,-0.63919,-0.62747,-0.59231,-0.60842,-0.59084,-0.59524,-0.63919,-0.42821,-0.18205,-0.02821,-0.02674,-0.21136
-0.52637,-0.60256,-0.61575,-0.58498,-0.57985,-0.60110,-0.61429,-0.62747,-0.61575,-0.59670,-0.60842,-0.60989,-0.60330,-0.63919,-0.62747,-0.59231,-0.60842,-0.59084,-0.59524,-0.63919,-0.42821,-0.18205,-0.02821,-0.02674,-0.21136
-0.52637,-0.60256,-0.61575,-0.58498,-0.57985,-0.60110,-0.61429,-0.62747,-0.61575,-0.59670,-0.60842,-0.60989,-0.60330,-0.63919,-0.62747,-0.59231,-0.60842,-0.59084,-0.59524,-0.63919,-0.42821,-0.18205,-0.02821,-0.02674,-0.21136
-0.52637,-0.60256,-0.61575,-0.58498,-0.57985,-0.60110,-0.61429,-0.62747,-0.61575,-0.59670,-0.60842,-0.60989,-0.60330,-0.63919,-0.62747,-0.59231,-0.60842,-0.59084,-0.59524,-0.63919,-0.42821,-0.18205,-0.02821,-0.02674,-0.21136
-0.52637,-0.60256,-0.61575,-0.58498,-0.57985,-0.60110,-0.61429,-0.62747,-0.61575,-0.59670,-0.60842,-0.60989,-0.60330,-0.63919,-0.62747,-0.59231,-0.60842,-0.59084,-0.59524,-0.63919,-0.42821,-0.18205,-0.02821,-0.02674,-0.21136
-0.52637,-0.60256,-0.61575,-0.58498,-0.57985,-0.60110,-0.61429,-0.62747,-0.61575,-0.59670,-0.60842,-0.60989,-0.60330,-0.63919,-0.62747,-0.59231,-0.60842,-0.59084,-0.59524,-0.63919,-0.42821,-0.18205,-0.02821,-0.02674,-0.21136
-0.52637,-0.60256,-0.61575,-0.58498,-0.57985,-0.60110,-0.61429,-0.62747,-0.61575,-0.59670,-0.60842,-0.60989,-0.60330,-0.63919,-0.62747,-0.59231,-0.60842,-0.59084,-0.59524,-0.63919,-0.42821,-0.18205,-0.02821,-0.02674,-0.21136
-0.52637,-0.60256,-0.61575,-0.58498,-0.57985,-0.60110,-0.61429,-0.62747,-0.61575,-0.59670,-0.60842,-0.60989,-0.60330,-0.63919,-0.62747,-0.59231,-0.60842,-0.59084,-0.59524,-0.63919,-0.42821,-0.18205,-0.02821,-0.02674,-0.21136
-0.52637,-0.60256,-0.61575,-0.58498,-0.57985,-0.60110,-0.61429,-0.62747,-0.61575,-0.59670,-0.60842,-0.60989,-0.60330,-0.63919,-0.62747,-0.59231,-0.60842,-0.59084,-0.59524,-0.63919,-0.42821,-0.18205,-0.02821,-0.02674,-0.21136
-0.52637,-0.60256,-0.61575,-0.58498,-0.57985,-0.60110,-0.61429,-0.62747,-0.61575,-0.59670,-0.60842,-0.60989,-0.60330,-0.63919,-0.62747,-0.59231,-0.60842,-0.59084,-0.59524,-0.63919,-0.42821,-0.18205,-0.02821,-0.02674,-0.21136
